#      T [K]      F [kJ/mol]    S [J/K/mol]  C_v [J/K/mol]     E [kJ/mol]
       0.000      11.4452141      0.0000000      0.0000000     11.4452141
      10.000      11.4449079      0.1357056      0.4669651     11.4462649
      20.000      11.4390154      1.2642849      3.5119555     11.4643011
      30.000      11.4161792      3.4170592      7.3496659     11.5186910
      40.000      11.3691299      6.0478514     11.1384367     11.6110440
      50.000      11.2942926      8.9618471     15.1931856     11.7423849
      60.000      11.1890859     12.1179980     19.6163719     11.9161658
      70.000      11.0512149     15.4888148     24.2534173     12.1354319
      80.000      10.8787388     19.0305579     28.8768897     12.4011834
      90.000      10.6702124     22.6897424     33.2987076     12.7122892
     100.000      10.4247293     26.4135736     37.4013583     13.0660866
     110.000      10.1418792     30.1562264     41.1297836     13.4590642
     120.000       9.8216651     33.8810736     44.4725563     13.8873939
     130.000       9.4644100     37.5605224     47.4445502     14.3472779
     140.000       9.0706726     41.1747937     50.0743584     14.8351437
     150.000       8.6411768     44.7104109     52.3962041     15.3477384
     160.000       8.1767557     48.1587674     54.4451757     15.8821584
     170.000       7.6783091     51.5149109     56.2546565     16.4358440
     180.000       7.1467726     54.7765698     57.8551062     17.0065552
     190.000       6.5830940     57.9434004     59.2736290     17.5923401
     200.000       5.9882174     61.0164172     60.5339739     18.1915009
     210.000       5.3630719     63.9975685     61.6567539     18.8025613
     220.000       4.7085637     66.8894237     62.6597600     19.4242370
     230.000       4.0255713     69.6949446     63.5583008     20.0554085
     240.000       3.3149420     72.4173200     64.3655328     20.6950988
     250.000       2.5774910     75.0598466     65.0927629     21.3424527
     260.000       1.8140002     77.6258454     65.7497165     21.9967200
     270.000       1.0252183     80.1186021     66.3447710     22.6572408
     280.000       0.2118616     82.5413275     66.8851565     23.3234333
     290.000      -0.6253852     84.8971307     67.3771267     23.9947827
     300.000      -1.4858680     87.1890018     67.8261031     24.6708326
     310.000      -2.3689617     89.4198029     68.2367982     25.3511772
     320.000      -3.2740696     91.5922633     68.6133184     26.0354547
     330.000      -4.2006212     93.7089783     68.9592516     26.7233416
     340.000      -5.1480715     95.7724112     69.2777405     27.4145483
     350.000      -6.1158996     97.7848966     69.5715455     28.1088142
     360.000      -7.1036070     99.7486446     69.8430971     28.8059050
     370.000      -8.1107170    101.6657464     70.0945410     29.5056092
     380.000      -9.1367731    103.5381796     70.3277761     30.2077352
     390.000     -10.1813380    105.3678143     70.5444867     30.9121096
     400.000     -11.2439926    107.1564186     70.7461709     31.6185748
     410.000     -12.3243351    108.9056647     70.9341635     32.3269874
     420.000     -13.4219800    110.6171344     71.1096571     33.0372165
     430.000     -14.5365569    112.2923241     71.2737194     33.7491425
     440.000     -15.6677103    113.9326505     71.4273079     34.4626559
     450.000     -16.8150982    115.5394550     71.5712838     35.1776566
     460.000     -17.9783919    117.1140088     71.7064225     35.8940522
     470.000     -19.1572749    118.6575166     71.8334238     36.6117579
     480.000     -20.3514425    120.1711212     71.9529206     37.3306956
     490.000     -21.5606012    121.6559071     72.0654861     38.0507932
     500.000     -22.7844680    123.1129041     72.1716405     38.7719840
     510.000     -24.0227700    124.5430906     72.2718564     39.4942062
     520.000     -25.2752436    125.9473969     72.3665644     40.2174028
     530.000     -26.5416346    127.3267077     72.4561570     40.9415205
     540.000     -27.8216972    128.6818654     72.5409927     41.6665101
     550.000     -29.1151941    130.0136721     72.6213995     42.3923256
     560.000     -30.4218954    131.3228923     72.6976776     43.1189243
     570.000     -31.7415791    132.6102550     72.7701028     43.8462663
     580.000     -33.0740300    133.8764557     72.8389282     44.5743143
     590.000     -34.4190398    135.1221584     72.9043867     45.3030336
     600.000     -35.7764069    136.3479975     72.9666927     46.0323916
     610.000     -37.1459356    137.5545791     73.0260440     46.7623576
     620.000     -38.5274362    138.7424830     73.0826232     47.4929032
     630.000     -39.9207249    139.9122640     73.1365993     48.2240014
     640.000     -41.3256229    141.0644530     73.1881284     48.9556270
     650.000     -42.7419570    142.1995589     73.2373554     49.6877563
     660.000     -44.1695588    143.3180692     73.2844145     50.4203669
     670.000     -45.6082646    144.4204514     73.3294304     51.1534378
     680.000     -47.0579155    145.5071539     73.3725191     51.8869491
     690.000     -48.5183569    146.5786072     73.4137884     52.6208821
     700.000     -49.9894382    147.6352248     73.4533388     53.3552192
     710.000     -51.4710132    148.6774038     73.4912640     54.0899435
     720.000     -52.9629394    149.7055260     73.5276512     54.8250393
     730.000     -54.4650781    150.7199586     73.5625823     55.5604917
     740.000     -55.9772942    151.7210547     73.5961334     56.2962864
     750.000     -57.4994559    152.7091545     73.6283760     57.0324100
     760.000     -59.0314350    153.6845852     73.6593769     57.7688497
     770.000     -60.5731064    154.6476623     73.6891988     58.5055936
     780.000     -62.1243481    155.5986898     73.7179006     59.2426300
     790.000     -63.6850410    156.5379608     73.7455373     59.9799480
     800.000     -65.2550691    157.4657580     73.7721607     60.7175373
     810.000     -66.8343189    158.3823542     73.7978198     61.4553880
     820.000     -68.4226797    159.2880127     73.8225602     62.1934907
     830.000     -70.0200435    160.1829877     73.8464251     62.9318363
     840.000     -71.6263047    161.0675251     73.8694553     63.6704164
     850.000     -73.2413600    161.9418621     73.8916890     64.4092228
     860.000     -74.8651087    162.8062283     73.9131625     65.1482476
     870.000     -76.4974521    163.6608456     73.9339099     65.8874836
     880.000     -78.1382938    164.5059288     73.9539634     66.6269235
     890.000     -79.7875396    165.3416856     73.9733535     67.3665607
     900.000     -81.4450971    166.1683173     73.9921092     68.1063885
     910.000     -83.1108761    166.9860186     74.0102576     68.8464008
     920.000     -84.7847883    167.7949783     74.0278247     69.5865917
     930.000     -86.4667472    168.5953792     74.0448350     70.3269555
     940.000     -88.1566680    169.3873985     74.0613116     71.0674866
     950.000     -89.8544678    170.1712082     74.0772765     71.8081800
     960.000     -91.5600653    170.9469748     74.0927508     72.5490305
     970.000     -93.2733810    171.7148602     74.1077542     73.2900334
     980.000     -94.9943368    172.4750213     74.1223056     74.0311841
     990.000     -96.7228562    173.2276104     74.1364229     74.7724781
    1000.000     -98.4588642    173.9727754     74.1501232     75.5139112
    1010.000    -100.2022874    174.7106600     74.1634227     76.2554792
    1020.000    -101.9530536    175.4414039     74.1763369     76.9971783
    1030.000    -103.7110922    176.1651426     74.1888804     77.7390047
    1040.000    -105.4763336    176.8820080     74.2010673     78.4809548
    1050.000    -107.2487098    177.5921283     74.2129109     79.2230249
    1060.000    -109.0281541    178.2956283     74.2244239     79.9652119
    1070.000    -110.8146007    178.9926290     74.2356186     80.7075123
    1080.000    -112.6079854    179.6832487     74.2465066     81.4499232
    1090.000    -114.4082448    180.3676021     74.2570988     82.1924415
    1100.000    -116.2153169    181.0458011     74.2674060     82.9350642
    1110.000    -118.0291407    181.7179544     74.2774382     83.6777887
    1120.000    -119.8496562    182.3841682     74.2872050     84.4206121
    1130.000    -121.6768046    183.0445456     74.2967159     85.1635319
    1140.000    -123.5105280    183.6991874     74.3059795     85.9065456
    1150.000    -125.3507696    184.3481916     74.3150044     86.6496507
    1160.000    -127.1974734    184.9916537     74.3237987     87.3928449
    1170.000    -129.0505845    185.6296670     74.3323702     88.1361260
    1180.000    -130.9100488    186.2623224     74.3407264     88.8794916
    1190.000    -132.7758134    186.8897085     74.3488742     89.6229398
    1200.000    -134.6478257    187.5119118     74.3568207     90.3664684
    1210.000    -136.5260346    188.1290167     74.3645724     91.1100756
    1220.000    -138.4103893    188.7411054     74.3721356     91.8537593
    1230.000    -140.3008402    189.3482585     74.3795163     92.5975177
    1240.000    -142.1973383    189.9505543     74.3867204     93.3413490
    1250.000    -144.0998354    190.5480695     74.3937534     94.0852515
    1260.000    -146.0082840    191.1408790     74.4006208     94.8292235
    1270.000    -147.9226375    191.7290558     74.4073276     95.5732634
    1280.000    -149.8428499    192.3126715     74.4138788     96.3173695
    1290.000    -151.7688760    192.8917957     74.4202792     97.0615405
    1300.000    -153.7006711    193.4664967     74.4265333     97.8057746
    1310.000    -155.6381914    194.0368413     74.4326457     98.5500707
    1320.000    -157.5813936    194.6028945     74.4386205     99.2944271
    1330.000    -159.5302352    195.1647202     74.4444618    100.0388426
    1340.000    -161.4846742    195.7223806     74.4501736    100.7833159
    1350.000    -163.4446691    196.2759369     74.4557596    101.5278457
    1360.000    -165.4101794    196.8254486     74.4612236    102.2724307
    1370.000    -167.3811648    197.3709741     74.4665690    103.0170697
    1380.000    -169.3575858    197.9125706     74.4717992    103.7617617
    1390.000    -171.3394033    198.4502940     74.4769176    104.5065054
    1400.000    -173.3265790    198.9841990     74.4819273    105.2512997
    1410.000    -175.3190748    199.5143392     74.4868313    105.9961436
    1420.000    -177.3168534    200.0407671     74.4916327    106.7410360
    1430.000    -179.3198779    200.5635341     74.4963341    107.4859759
    1440.000    -181.3281120    201.0826905     74.5009385    108.2309623
    1450.000    -183.3415198    201.5982856     74.5054483    108.9759943
    1460.000    -185.3600660    202.1103678     74.5098663    109.7210710
    1470.000    -187.3837156    202.6189844     74.5141949    110.4661914
    1480.000    -189.4124343    203.1241817     74.5184364    111.2113546
    1490.000    -191.4461880    203.6260053     74.5225932    111.9565598
    1500.000    -193.4849433    204.1244997     74.5266675    112.7018062
    1510.000    -195.5286671    204.6197086     74.5306615    113.4470929
    1520.000    -197.5773267    205.1116749     74.5345773    114.1924191
    1530.000    -199.6308899    205.6004406     74.5384170    114.9377842
    1540.000    -201.6893250    206.0860469     74.5421823    115.6831872
    1550.000    -203.7526004    206.5685342     74.5458754    116.4286276
    1560.000    -205.8206854    207.0479422     74.5494980    117.1741045
    1570.000    -207.8935492    207.5243098     74.5530518    117.9196173
    1580.000    -209.9711616    207.9976752     74.5565387    118.6651653
    1590.000    -212.0534928    208.4680759     74.5599603    119.4107479
    1600.000    -214.1405133    208.9355485     74.5633181    120.1563643
    1610.000    -216.2321941    209.4001293     74.5666139    120.9020140
    1620.000    -218.3285064    209.8618536     74.5698490    121.6476964
    1630.000    -220.4294218    210.3207562     74.5730250    122.3934108
    1640.000    -222.5349122    210.7768713     74.5761434    123.1391567
    1650.000    -224.6449500    211.2302324     74.5792054    123.8849335
    1660.000    -226.7595078    211.6808725     74.5822124    124.6307406
    1670.000    -228.8785585    212.1288240     74.5851658    125.3765776
    1680.000    -231.0020754    212.5741186     74.5880668    126.1224438
    1690.000    -233.1300321    213.0167875     74.5909166    126.8683387
    1700.000    -235.2624025    213.4568614     74.5937165    127.6142619
    1710.000    -237.3991608    213.8943706     74.5964676    128.3602129
    1720.000    -239.5402815    214.3293445     74.5991710    129.1061911
    1730.000    -241.6857393    214.7618124     74.6018278    129.8521962
    1740.000    -243.8355095    215.1918029     74.6044391    130.5982275
    1750.000    -245.9895672    215.6193440     74.6070059    131.3442848
    1760.000    -248.1478883    216.0444635     74.6095293    132.0903675
    1770.000    -250.3104485    216.4671886     74.6120101    132.8364752
    1780.000    -252.4772242    216.8875459     74.6144494    133.5826076
    1790.000    -254.6481916    217.3055619     74.6168480    134.3287641
    1800.000    -256.8233277    217.7212623     74.6192069    135.0749444
    1810.000    -259.0026092    218.1346726     74.6215269    135.8211481
    1820.000    -261.1860136    218.5458178     74.6238089    136.5673748
    1830.000    -263.3735181    218.9547226     74.6260538    137.3136241
    1840.000    -265.5651006    219.3614111     74.6282622    138.0598958
    1850.000    -267.7607390    219.7659072     74.6304350    138.8061893
    1860.000    -269.9604116    220.1682344     74.6325730    139.5525043
    1870.000    -272.1640966    220.5684156     74.6346769    140.2988406
    1880.000    -274.3717728    220.9664737     74.6367474    141.0451978
    1890.000    -276.5834191    221.3624310     74.6387852    141.7915755
    1900.000    -278.7990145    221.7563094     74.6407910    142.5379734
    1910.000    -281.0185384    222.1481307     74.6427655    143.2843912
    1920.000    -283.2419703    222.5379161     74.6447093    144.0308286
    1930.000    -285.4692900    222.9256867     74.6466230    144.7772853
    1940.000    -287.7004774    223.3114631     74.6485073    145.5237609
    1950.000    -289.9355127    223.6952656     74.6503628    146.2702553
    1960.000    -292.1743762    224.0771144     74.6521900    147.0167681
    1970.000    -294.4170485    224.4570292     74.6539895    147.7632990
    1980.000    -296.6635104    224.8350294     74.6557619    148.5098478
    1990.000    -298.9137428    225.2111341     74.6575078    149.2564142
    2000.000    -301.1677268    225.5853623     74.6592275    150.0029979
