# Phonon free energy and specific heat from phonopy-FHI-aims
# Phonon zero point energy =            0.298500775 eV
#     Temperature (K)          Free energy (eV/cell)     Internal energy (eV/cell)                 c_v (kB/cell)              -TS_vib(eV/cell)
               0.000                    0.298500775                   0.298500775                   0.000000000                  -0.000000000
               9.950                    0.298496601                   0.298515255                   0.082621973                  -0.000018655
              19.900                    0.298381319                   0.298959540                   1.207838801                  -0.000578222
              29.851                    0.297757172                   0.300831929                   3.189029782                  -0.003074757
              39.801                    0.296240604                   0.304387103                   5.057070106                  -0.008146499
              49.751                    0.293649251                   0.309427432                   6.662227802                  -0.015778181
              59.701                    0.289918865                   0.315763954                   8.097582481                  -0.025845089
              69.652                    0.285032497                   0.323287877                   9.439923544                  -0.038255381
              79.602                    0.278990375                   0.331933260                  10.714299726                  -0.052942885
              89.552                    0.271800307                   0.341641188                  11.916511840                  -0.069840882
              99.502                    0.263475313                   0.352344801                  13.034870685                  -0.088869488
             109.453                    0.254032983                   0.363968082                  14.060655644                  -0.109935099
             119.403                    0.243494899                   0.376429947                  14.990824736                  -0.132935048
             129.353                    0.231885858                   0.389648940                  15.827319941                  -0.157763082
             139.303                    0.219233014                   0.403546836                  16.575447903                  -0.184313822
             149.254                    0.205565054                   0.418050846                  17.242366792                  -0.212485791
             159.204                    0.190911486                   0.433094699                  17.835971100                  -0.242183213
             169.154                    0.175302063                   0.448618941                  18.364169887                  -0.273316878
             179.104                    0.158766343                   0.464570746                  18.834467254                  -0.305804403
             189.055                    0.141333362                   0.480903466                  19.253749225                  -0.339570104
             199.005                    0.123031408                   0.497576063                  19.628201200                  -0.374544655
             208.955                    0.103887863                   0.514552494                  19.963302757                  -0.410664631
             218.905                    0.083929113                   0.531801129                  20.263864865                  -0.447872016
             228.856                    0.063180492                   0.549294192                  20.534087677                  -0.486113700
             238.806                    0.041666266                   0.567007273                  20.777625865                  -0.525341007
             248.756                    0.019409631                   0.584918885                  20.997654048                  -0.565509254
             258.706                   -0.003567263                   0.603010079                  21.196928388                  -0.606577342
             268.657                   -0.027243287                   0.621264109                  21.377842498                  -0.648507396
             278.607                   -0.051598292                   0.639666145                  21.542477065                  -0.691264436
             288.557                   -0.076613068                   0.658203023                  21.692643238                  -0.734816091
             298.507                   -0.102269304                   0.676863029                  21.829920208                  -0.779132333
             308.458                   -0.128549541                   0.695635716                  21.955687556                  -0.824185257
             318.408                   -0.155437127                   0.714511745                  22.071152974                  -0.869948871
             328.358                   -0.182916173                   0.733482746                  22.177375982                  -0.916398919
             338.308                   -0.210971516                   0.752541201                  22.275288180                  -0.963512718
             348.259                   -0.239588674                   0.771680346                  22.365710555                  -1.011269020
             358.209                   -0.268753809                   0.790894073                  22.449368261                  -1.059647882
             368.159                   -0.298453689                   0.810176865                  22.526903257                  -1.108630554
             378.109                   -0.328675658                   0.829523720                  22.598885133                  -1.158199377
             388.060                   -0.359407599                   0.848930097                  22.665820387                  -1.208337696
             398.010                   -0.390637907                   0.868391868                  22.728160397                  -1.259029774
             407.960                   -0.422355457                   0.887905267                  22.786308279                  -1.310260724
             417.910                   -0.454549581                   0.907466858                  22.840624802                  -1.362016439
             427.861                   -0.487210039                   0.927073496                  22.891433492                  -1.414283535
             437.811                   -0.520326998                   0.946722302                  22.939025059                  -1.467049300
             447.761                   -0.553891011                   0.966410630                  22.983661231                  -1.520301640
             457.711                   -0.587892990                   0.986136049                  23.025578087                  -1.574029039
             467.662                   -0.622324198                   1.005896321                  23.064988964                  -1.628220518
             477.612                   -0.657176218                   1.025689380                  23.102086991                  -1.682865598
             487.562                   -0.692440946                   1.045513321                  23.137047308                  -1.737954267
             497.512                   -0.728110570                   1.065366380                  23.170029008                  -1.793476950
             507.463                   -0.764177558                   1.085246922                  23.201176848                  -1.849424480
             517.413                   -0.800634640                   1.105153433                  23.230622745                  -1.905788074
             527.363                   -0.837474801                   1.125084507                  23.258487106                  -1.962559308
             537.313                   -0.874691262                   1.145038834                  23.284879995                  -2.019730096
             547.264                   -0.912277473                   1.165015197                  23.309902171                  -2.077292670
             557.214                   -0.950227101                   1.185012461                  23.333646002                  -2.135239562
             567.164                   -0.988534020                   1.205029567                  23.356196284                  -2.193563586
             577.114                   -1.027192300                   1.225065524                  23.377630962                  -2.252257824
             587.065                   -1.066196199                   1.245119408                  23.398021784                  -2.311315608
             597.015                   -1.105540156                   1.265190353                  23.417434870                  -2.370730509
             606.965                   -1.145218781                   1.285277546                  23.435931232                  -2.430496326
             616.915                   -1.185226845                   1.305380226                  23.453567236                  -2.490607071
             626.866                   -1.225559280                   1.325497678                  23.470395018                  -2.551056957
             636.816                   -1.266211164                   1.345629229                  23.486462851                  -2.611840394
             646.766                   -1.307177723                   1.365774248                  23.501815487                  -2.672951971
             656.716                   -1.348454317                   1.385932140                  23.516494455                  -2.734386456
             666.667                   -1.390036438                   1.406102343                  23.530538333                  -2.796138781
             676.617                   -1.431919706                   1.426284328                  23.543982998                  -2.858204035
             686.567                   -1.474099862                   1.446477597                  23.556861842                  -2.920577459
             696.517                   -1.516572763                   1.466681677                  23.569205980                  -2.983254441
             706.468                   -1.559334378                   1.486896123                  23.581044430                  -3.046230501
             716.418                   -1.602380783                   1.507120513                  23.592404281                  -3.109501296
             726.368                   -1.645708157                   1.527354447                  23.603310841                  -3.173062604
             736.318                   -1.689312781                   1.547597547                  23.613787778                  -3.236910328
             746.269                   -1.733191027                   1.567849454                  23.623857241                  -3.301040482
             756.219                   -1.777339364                   1.588109828                  23.633539982                  -3.365449192
             766.169                   -1.821754346                   1.608378346                  23.642855451                  -3.430132692
             776.119                   -1.866432614                   1.628654700                  23.651821899                  -3.495087314
             786.070                   -1.911370890                   1.648938599                  23.660456463                  -3.560309490
             796.020                   -1.956565978                   1.669229766                  23.668775245                  -3.625795744
             805.970                   -2.002014756                   1.689527935                  23.676793387                  -3.691542691
             815.920                   -2.047714177                   1.709832855                  23.684525139                  -3.757547032
             825.871                   -2.093661264                   1.730144288                  23.691983920                  -3.823805552
             835.821                   -2.139853112                   1.750462003                  23.699182375                  -3.890315115
             845.771                   -2.186286879                   1.770785783                  23.706132429                  -3.957072662
             855.721                   -2.232959789                   1.791115420                  23.712845335                  -4.024075209
             865.672                   -2.279869129                   1.811450715                  23.719331718                  -4.091319844
             875.622                   -2.327012244                   1.831791479                  23.725601617                  -4.158803723
             885.572                   -2.374386539                   1.852137529                  23.731664523                  -4.226524068
             895.522                   -2.421989476                   1.872488692                  23.737529414                  -4.294478167
             905.473                   -2.469818568                   1.892844802                  23.743204789                  -4.362663370
             915.423                   -2.517871385                   1.913205700                  23.748698699                  -4.431077085
             925.373                   -2.566145546                   1.933571234                  23.754018769                  -4.499716780
             935.323                   -2.614638719                   1.953941257                  23.759172235                  -4.568579976
             945.274                   -2.663348622                   1.974315631                  23.764165956                  -4.637664253
             955.224                   -2.712273018                   1.994694220                  23.769006446                  -4.706967238
             965.174                   -2.761409717                   2.015076896                  23.773699892                  -4.776486612
             975.124                   -2.810756570                   2.035463535                  23.778252170                  -4.846220105
             985.075                   -2.860311473                   2.055854020                  23.782668868                  -4.916165493
             995.025                   -2.910072363                   2.076248235                  23.786955302                  -4.986320598
            1004.975                   -2.960037217                   2.096646071                  23.791116529                  -5.056683289
            1014.925                   -3.010204051                   2.117047424                  23.795157365                  -5.127251475
            1024.876                   -3.060570917                   2.137452191                  23.799082395                  -5.198023109
            1034.826                   -3.111135908                   2.157860276                  23.802895992                  -5.268996184
            1044.776                   -3.161897148                   2.178271585                  23.806602323                  -5.340168733
            1054.726                   -3.212852800                   2.198686027                  23.810205361                  -5.411538827
            1064.677                   -3.264001058                   2.219103515                  23.813708901                  -5.483104574
            1074.627                   -3.315340151                   2.239523967                  23.817116562                  -5.554864118
            1084.577                   -3.366868338                   2.259947300                  23.820431803                  -5.626815638
            1094.527                   -3.418583910                   2.280373437                  23.823657928                  -5.698957347
            1104.478                   -3.470485189                   2.300802304                  23.826798095                  -5.771287493
            1114.428                   -3.522570527                   2.321233827                  23.829855323                  -5.843804355
            1124.378                   -3.574838303                   2.341667938                  23.832832500                  -5.916506241
            1134.328                   -3.627286926                   2.362104567                  23.835732391                  -5.989391493
            1144.279                   -3.679914830                   2.382543651                  23.838557643                  -6.062458481
            1154.229                   -3.732720478                   2.402985127                  23.841310788                  -6.135705605
            1164.179                   -3.785702358                   2.423428933                  23.843994255                  -6.209131291
            1174.129                   -3.838858983                   2.443875011                  23.846610370                  -6.282733994
            1184.080                   -3.892188892                   2.464323304                  23.849161364                  -6.356512195
            1194.030                   -3.945690646                   2.484773757                  23.851649376                  -6.430464403
            1203.980                   -3.999362831                   2.505226317                  23.854076457                  -6.504589148
            1213.930                   -4.053204056                   2.525680933                  23.856444579                  -6.578884989
            1223.881                   -4.107212952                   2.546137555                  23.858755630                  -6.653350507
            1233.831                   -4.161388171                   2.566596135                  23.861011427                  -6.727984306
            1243.781                   -4.215728389                   2.587056626                  23.863213713                  -6.802785015
            1253.731                   -4.270232300                   2.607518983                  23.865364166                  -6.877751283
            1263.682                   -4.324898620                   2.627983162                  23.867464395                  -6.952881782
            1273.632                   -4.379726083                   2.648449121                  23.869515950                  -7.028175204
            1283.582                   -4.434713445                   2.668916819                  23.871520321                  -7.103630264
            1293.532                   -4.489859480                   2.689386215                  23.873478941                  -7.179245695
            1303.483                   -4.545162980                   2.709857272                  23.875393189                  -7.255020252
            1313.433                   -4.600622755                   2.730329952                  23.877264394                  -7.330952707
            1323.383                   -4.656237633                   2.750804218                  23.879093833                  -7.407041851
            1333.333                   -4.712006461                   2.771280036                  23.880882740                  -7.483286496
            1343.284                   -4.767928100                   2.791757370                  23.882632300                  -7.559685470
            1353.234                   -4.824001430                   2.812236188                  23.884343657                  -7.636237618
            1363.184                   -4.880225346                   2.832716458                  23.886017914                  -7.712941804
            1373.134                   -4.936598760                   2.853198147                  23.887656134                  -7.789796908
