# Phonon free energy and specific heat from phonopy-FHI-aims
# Phonon zero point energy =            1.348958123 eV
#     Temperature (K)          Free energy (eV/cell)     Internal energy (eV/cell)                 c_v (kB/cell)              -TS_vib(eV/cell)
               0.000                    1.348958123                   1.348958123                   0.000000000                  -0.000000000
               1.000                    1.348958104                   1.348958188                   0.003089423                  -0.000000084
               1.999                    1.348957770                   1.348959230                   0.026920067                  -0.000001460
               2.999                    1.348956172                   1.348964652                   0.116016832                  -0.000008480
               3.998                    1.348951072                   1.348983337                   0.347556369                  -0.000032265
               4.998                    1.348938345                   1.349030170                   0.773969101                  -0.000091825
               5.997                    1.348912212                   1.349122365                   1.398021713                  -0.000210153
               6.997                    1.348865998                   1.349275857                   2.191134729                  -0.000409859
               7.996                    1.348792853                   1.349503516                   3.113276848                  -0.000710662
               8.996                    1.348686241                   1.349814691                   4.124008149                  -0.001128450
               9.995                    1.348540223                   1.350215433                   5.187688117                  -0.001675210
              10.995                    1.348349588                   1.350709011                   6.275500452                  -0.002359424
              11.994                    1.348109875                   1.351296516                   7.365628859                  -0.003186640
              12.994                    1.347817351                   1.351977432                   8.442441292                  -0.004160081
              13.993                    1.347468941                   1.352750124                   9.495296898                  -0.005281184
              14.993                    1.347062156                   1.353612211                  10.517353848                  -0.006550055
              15.992                    1.346595017                   1.354560848                  11.504555481                  -0.007965831
              16.992                    1.346065978                   1.355592932                  12.454841069                  -0.009526954
              17.991                    1.345473862                   1.356705247                  13.367561522                  -0.011231385
              18.991                    1.344817804                   1.357894567                  14.243057595                  -0.013076763
              19.990                    1.344097198                   1.359157726                  15.082357525                  -0.015060528
              20.990                    1.343311654                   1.360491667                  15.886959048                  -0.017180013
              21.989                    1.342460963                   1.361893479                  16.658670117                  -0.019432516
              22.989                    1.341545063                   1.363360413                  17.399490672                  -0.021815350
              23.988                    1.340564014                   1.364889900                  18.111523668                  -0.024325886
              24.988                    1.339517973                   1.366479551                  18.796907549                  -0.026961578
              25.987                    1.338407178                   1.368127163                  19.457764970                  -0.029719985
              26.987                    1.337231929                   1.369830713                  20.096164148                  -0.032598784
              27.986                    1.335992577                   1.371588353                  20.714090265                  -0.035595776
              28.986                    1.334689508                   1.373398402                  21.313424967                  -0.038708893
              29.985                    1.333323141                   1.375259334                  21.895932449                  -0.041936194
              30.985                    1.331893911                   1.377169773                  22.463250866                  -0.045275862
              31.984                    1.330402270                   1.379128475                  23.016888066                  -0.048726206
              32.984                    1.328848677                   1.381134324                  23.558220762                  -0.052285647
              33.983                    1.327233598                   1.383186312                  24.088496435                  -0.055952715
              34.983                    1.325557496                   1.385283538                  24.608837332                  -0.059726042
              35.982                    1.323820834                   1.387425190                  25.120246046                  -0.063604355
              36.982                    1.322024072                   1.389610537                  25.623612244                  -0.067586465
              37.981                    1.320167662                   1.391838921                  26.119720154                  -0.071671260
              38.981                    1.318252048                   1.394109748                  26.609256541                  -0.075857700
              39.980                    1.316277667                   1.396422477                  27.092818879                  -0.080144810
              40.980                    1.314244948                   1.398776617                  27.570923562                  -0.084531669
              41.979                    1.312154309                   1.401171718                  28.044013952                  -0.089017409
              42.979                    1.310006159                   1.403607364                  28.512468169                  -0.093601205
              43.978                    1.307800896                   1.406083170                  28.976606515                  -0.098282274
              44.978                    1.305538911                   1.408598777                  29.436698464                  -0.103059866
              45.977                    1.303220583                   1.411153845                  29.892969180                  -0.107933262
              46.977                    1.300846282                   1.413748054                  30.345605523                  -0.112901772
              47.976                    1.298416371                   1.416381098                  30.794761544                  -0.117964727
              48.976                    1.295931202                   1.419052683                  31.240563463                  -0.123121481
              49.975                    1.293391118                   1.421762524                  31.683114133                  -0.128371406
              50.975                    1.290796456                   1.424510345                  32.122497026                  -0.133713889
              51.974                    1.288147544                   1.427295877                  32.558779742                  -0.139148333
              52.974                    1.285444703                   1.430118854                  32.992017092                  -0.144674151
              53.973                    1.282688245                   1.432979017                  33.422253760                  -0.150290771
              54.973                    1.279878479                   1.435876108                  33.849526596                  -0.155997629
              55.972                    1.277015703                   1.438809873                  34.273866572                  -0.161794170
              56.972                    1.274100213                   1.441780062                  34.695300412                  -0.167679849
              57.971                    1.271132295                   1.444786425                  35.113851955                  -0.173654130
              58.971                    1.268112232                   1.447828715                  35.529543265                  -0.179716482
              59.970                    1.265040302                   1.450906685                  35.942395523                  -0.185866383
              60.970                    1.261916776                   1.454020093                  36.352429725                  -0.192103317
              61.969                    1.258741921                   1.457168698                  36.759667212                  -0.198426777
              62.969                    1.255515999                   1.460352257                  37.164130065                  -0.204836258
              63.968                    1.252239268                   1.463570535                  37.565841367                  -0.211331267
              64.968                    1.248911981                   1.466823295                  37.964825371                  -0.217911314
              65.967                    1.245534387                   1.470110303                  38.361107576                  -0.224575916
              66.967                    1.242106731                   1.473431327                  38.754714744                  -0.231324596
              67.966                    1.238629255                   1.476786138                  39.145674849                  -0.238156884
              68.966                    1.235102195                   1.480174510                  39.534016988                  -0.245072315
              69.965                    1.231525787                   1.483596219                  39.919771262                  -0.252070432
              70.965                    1.227900259                   1.487051042                  40.302968630                  -0.259150783
              71.964                    1.224225840                   1.490538761                  40.683640740                  -0.266312922
              72.964                    1.220502752                   1.494059160                  41.061819766                  -0.273556408
              73.963                    1.216731216                   1.497612026                  41.437538222                  -0.280880809
              74.963                    1.212911451                   1.501197147                  41.810828791                  -0.288285697
              75.962                    1.209043669                   1.504814317                  42.181724151                  -0.295770648
              76.962                    1.205128083                   1.508463330                  42.550256808                  -0.303335247
              77.961                    1.201164900                   1.512143984                  42.916458941                  -0.310979084
              78.961                    1.197154328                   1.515856080                  43.280362251                  -0.318701752
              79.960                    1.193096569                   1.519599422                  43.641997836                  -0.326502853
              80.960                    1.188991823                   1.523373814                  44.001396059                  -0.334381991
              81.959                    1.184840289                   1.527179067                  44.358586449                  -0.342338778
              82.959                    1.180642162                   1.531014990                  44.713597603                  -0.350372829
              83.958                    1.176397634                   1.534881398                  45.066457102                  -0.358483764
              84.958                    1.172106897                   1.538778106                  45.417191448                  -0.366671209
              85.957                    1.167770139                   1.542704932                  45.765826007                  -0.374934793
              86.957                    1.163387545                   1.546661696                  46.112384964                  -0.383274152
              87.956                    1.158959299                   1.550648222                  46.456891293                  -0.391688922
              88.956                    1.154485584                   1.554664332                  46.799366736                  -0.400178748
              89.955                    1.149966578                   1.558709852                  47.139831789                  -0.408743274
              90.955                    1.145402459                   1.562784612                  47.478305707                  -0.417382153
              91.954                    1.140793402                   1.566888439                  47.814806500                  -0.426095037
              92.954                    1.136139581                   1.571021165                  48.149350958                  -0.434881584
              93.953                    1.131441167                   1.575182621                  48.481954664                  -0.443741454
              94.953                    1.126698330                   1.579372642                  48.812632023                  -0.452674312
              95.952                    1.121911237                   1.583591061                  49.141396295                  -0.461679824
              96.952                    1.117080055                   1.587837715                  49.468259631                  -0.470757660
              97.951                    1.112204948                   1.592112441                  49.793233114                  -0.479907493
              98.951                    1.107286078                   1.596415075                  50.116326800                  -0.489128997
              99.950                    1.102323607                   1.600745457                  50.437549769                  -0.498421850
             100.950                    1.097317694                   1.605103426                  50.756910169                  -0.507785732
             101.949                    1.092268497                   1.609488821                  51.074415268                  -0.517220325
             102.949                    1.087176171                   1.613901484                  51.390071506                  -0.526725313
             103.948                    1.082040872                   1.618341255                  51.703884546                  -0.536300383
             104.948                    1.076862753                   1.622807975                  52.015859325                  -0.545945222
             105.947                    1.071641966                   1.627301487                  52.326000109                  -0.555659521
             106.947                    1.066378661                   1.631821633                  52.634310543                  -0.565442972
             107.946                    1.061072988                   1.636368254                  52.940793702                  -0.575295267
             108.946                    1.055725094                   1.640941195                  53.245452143                  -0.585216101
             109.945                    1.050335126                   1.645540297                  53.548287953                  -0.595205171
             110.945                    1.044903230                   1.650165405                  53.849302797                  -0.605262175
             111.944                    1.039429550                   1.654816360                  54.148497968                  -0.615386811
             112.944                    1.033914227                   1.659493007                  54.445874427                  -0.625578780
             113.943                    1.028357406                   1.664195189                  54.741432850                  -0.635837783
             114.943                    1.022759225                   1.668922749                  55.035173670                  -0.646163524
             115.942                    1.017119826                   1.673675531                  55.327097116                  -0.656555705
             116.942                    1.011439345                   1.678453378                  55.617203252                  -0.667014032
             117.941                    1.005717922                   1.683256133                  55.905492012                  -0.677538211
             118.941                    0.999955692                   1.688083641                  56.191963236                  -0.688127949
             119.940                    0.994152792                   1.692935744                  56.476616705                  -0.698782953
             120.940                    0.988309354                   1.697812287                  56.759452165                  -0.709502932
             121.939                    0.982425515                   1.702713111                  57.040469362                  -0.720287597
             122.939                    0.976501405                   1.707638062                  57.319668067                  -0.731136657
             123.938                    0.970537158                   1.712586982                  57.597048101                  -0.742049824
             124.938                    0.964532903                   1.717559714                  57.872609360                  -0.753026811
             125.937                    0.958488772                   1.722556102                  58.146351834                  -0.764067330
             126.937                    0.952404893                   1.727575989                  58.418275628                  -0.775171096
             127.936                    0.946281396                   1.732619219                  58.688380983                  -0.786337823
             128.936                    0.940118407                   1.737685635                  58.956668289                  -0.797567227
             129.935                    0.933916055                   1.742775080                  59.223138101                  -0.808859025
             130.935                    0.927674464                   1.747887398                  59.487791158                  -0.820212934
             131.934                    0.921393761                   1.753022432                  59.750628385                  -0.831628671
             132.934                    0.915074071                   1.758180027                  60.011650916                  -0.843105956
             133.933                    0.908715518                   1.763360025                  60.270860093                  -0.854644508
             134.933                    0.902318224                   1.768562272                  60.528257483                  -0.866244047
             135.932                    0.895882313                   1.773786609                  60.783844879                  -0.877904296
             136.932                    0.889407907                   1.779032883                  61.037624311                  -0.889624976
             137.931                    0.882895128                   1.784300938                  61.289598048                  -0.901405810
