#      T [K]      F [kJ/mol]    S [J/K/mol]  C_v [J/K/mol]     E [kJ/mol]
       0.000      66.2342763      0.0000000      0.0000000     66.2342763
      10.000      66.2145153      7.2730358     19.5489437     66.2872457
      20.000      66.0036365     38.2024614     78.9501752     66.7676857
      30.000      65.4081724     82.1336005    141.1379075     67.8721804
      40.000      64.3467034    130.4912903    196.3191029     69.5663551
      50.000      62.7964231    179.4902109    243.2688196     71.7709336
      60.000      60.7604817    227.4445164    282.8569382     74.4071527
      70.000      58.2534579    273.6357936    316.4066373     77.4079634
      80.000      55.2945173    317.8084211    345.1182793     80.7191910
      90.000      51.9041560    359.9240806    369.9200266     84.2973233
     100.000      48.1027001    400.0416364    391.4977623     88.1068638
     110.000      43.9096553    438.2600013    410.3648326     92.1182554
     120.000      39.3434557    474.6917253    426.9201029     96.3064627
     130.000      34.4213950    509.4510534    441.4859503    100.6500319
     140.000      29.1596397    542.6486441    454.3309219    105.1304499
     150.000      23.5732777    574.3893331    465.6830114    109.7316777
     160.000      17.6763814    604.7712956    475.7377699    114.4397887
     170.000      11.4820757    633.8858658    484.6637068    119.2426729
     180.000       5.0026059    661.8176734    492.6062704    124.1297871
     190.000      -1.7505966    688.6449343    499.6910422    129.0919409
     200.000      -8.7668522    714.4398191    506.0264354    134.1211117
     210.000     -16.0361741    739.2688530    511.7060351    139.2102850
     220.000     -23.5492146    763.1933250    516.8106423    144.3533169
     230.000     -31.2972141    786.2696914    521.4100583    149.5448150
     240.000     -39.2719552    808.5499642    525.5646366    154.7800362
     250.000     -47.4657199    830.0820789    529.3266255    160.0547998
     260.000     -55.8712506    850.9102399    532.7413241    165.3654117
     270.000     -64.4817145    871.0752403    535.8480740    170.7086004
     280.000     -73.2906708    890.6147576    538.6811075    176.0814613
     290.000     -82.2920411    909.5636247    541.2702718    181.4814100
     300.000     -91.4800822    927.9540778    543.6416454    186.9061411
     310.000    -100.8493611    945.8159823    545.8180648    192.3535934
     320.000    -110.3947326    963.1770382    547.8195714    197.8219197
     330.000    -120.1113183    980.0629670    549.6637940    203.3094608
     340.000    -129.9944880    996.4976803    551.3662736    208.8147233
     350.000    -140.0398422   1012.5034341    552.9407421    214.3363597
     360.000    -150.2431961   1028.1009673    554.3993600    219.8731521
     370.000    -160.6005655   1043.3096279    555.7529194    225.4239969
     380.000    -171.1081528   1058.1474874    557.0110195    230.9878924
     390.000    -181.7623356   1072.6314444    558.1822161    236.5639277
     400.000    -192.5596549   1086.7773187    559.2741515    242.1512726
     410.000    -203.4968046   1100.5999366    560.2936654    247.7491694
     420.000    -214.5706225   1114.1132085    561.2468920    253.3569250
     430.000    -225.7780813   1127.3301999    562.1393432    258.9739047
     440.000    -237.1162800   1140.2631952    562.9759811    264.5995259
     450.000    -248.5824371   1152.9237564    563.7612813    270.2332533
     460.000    -260.1738834   1165.3227767    564.4992879    275.8745939
     470.000    -271.8880552   1177.4705293    565.1936613    281.5230936
     480.000    -283.7224888   1189.3767116    565.8477206    287.1783328
     490.000    -295.6748148   1201.0504867    566.4644801    292.8399237
     500.000    -307.7427528   1212.5005200    567.0466819    298.5075072
     510.000    -319.9241067   1223.7350142    567.5968243    304.1807505
     520.000    -332.2167605   1234.7617404    568.1171873    309.8593445
     530.000    -344.6186736   1245.5880671    568.6098542    315.5430020
     540.000    -357.1278772   1256.2209867    569.0767317    321.2314556
     550.000    -369.7424708   1266.6671405    569.5195675    326.9244565
     560.000    -382.4606185   1276.9328406    569.9399652    332.6217722
     570.000    -395.2805462   1287.0240913    570.3393986    338.3231859
     580.000    -408.2005380   1296.9466082    570.7192238    344.0284948
     590.000    -421.2189341   1306.7058360    571.0806901    349.7375092
     600.000    -434.3341277   1316.3069650    571.4249500    355.4500513
     610.000    -447.5445629   1325.7549464    571.7530680    361.1659544
     620.000    -460.8487319   1335.0545065    572.0660280    366.8850621
     630.000    -474.2451733   1344.2101600    572.3647410    372.6072275
     640.000    -487.7324698   1353.2262220    572.6500513    378.3323123
     650.000    -501.3092463   1362.1068195    572.9227418    384.0601864
     660.000    -514.9741679   1370.8559020    573.1835399    389.7907275
     670.000    -528.7259385   1379.4772513    573.4331215    395.5238199
     680.000    -542.5632992   1387.9744909    573.6721158    401.2593546
     690.000    -556.4850263   1396.3510943    573.9011085    406.9972288
     700.000    -570.4899301   1404.6103934    574.1206460    412.7373453
     710.000    -584.5768538   1412.7555855    574.3312380    418.4796119
     720.000    -598.7446717   1420.7897410    574.5333605    424.2239418
     730.000    -612.9922883   1428.7158092    574.7274586    429.9702524
     740.000    -627.3186371   1436.5366252    574.9139488    435.7184656
     750.000    -641.7226791   1444.2549152    575.0932208    441.4685073
     760.000    -656.2034024   1451.8733020    575.2656402    447.2203072
     770.000    -670.7598205   1459.3943104    575.4315496    452.9737984
     780.000    -685.3909721   1466.8203713    575.5912708    458.7289176
     790.000    -700.0959193   1474.1538272    575.7451058    464.4856042
     800.000    -714.8737475   1481.3969356    575.8933389    470.2438010
     810.000    -729.7235641   1488.5518733    576.0362371    476.0034532
     820.000    -744.6444980   1495.6207401    576.1740521    481.7645088
     830.000    -759.6356988   1502.6055625    576.3070209    487.5269181
     840.000    -774.6963357   1509.5082970    576.4353669    493.2906338
     850.000    -789.8255974   1516.3308331    576.5593008    499.0556107
     860.000    -805.0226911   1523.0749964    576.6790217    504.8218058
     870.000    -820.2868420   1529.7425514    576.7947173    510.5891778
     880.000    -835.6172925   1536.3352043    576.9065653    516.3576873
     890.000    -851.0133019   1542.8546053    577.0147336    522.1272968
     900.000    -866.4741457   1549.3023511    577.1193812    527.8979703
     910.000    -881.9991152   1555.6799873    577.2206585    533.6696732
     920.000    -897.5875168   1561.9890103    577.3187082    539.4423727
     930.000    -913.2386715   1568.2308695    577.4136653    545.2160371
     940.000    -928.9519150   1574.4069692    577.5056580    550.9906361
     950.000    -944.7265963   1580.5186705    577.5948080    556.7661407
     960.000    -960.5620781   1586.5672930    577.6812306    562.5425232
     970.000    -976.4577361   1592.5541163    577.7650357    568.3197566
     980.000    -992.4129586   1598.4803817    577.8463274    574.0978155
     990.000   -1008.4271459   1604.3472940    577.9252049    579.8766751
    1000.000   -1024.4997105   1610.1560224    578.0017624    585.6563119
    1010.000   -1040.6300762   1615.9077021    578.0760899    591.4367029
    1020.000   -1056.8176781   1621.6034359    578.1482726    597.2178265
    1030.000   -1073.0619620   1627.2442947    578.2183922    602.9996615
    1040.000   -1089.3623845   1632.8313195    578.2865261    608.7821877
    1050.000   -1105.7184123   1638.3655219    578.3527485    614.5653857
    1060.000   -1122.1295222   1643.8478856    578.4171299    620.3492366
    1070.000   -1138.5952005   1649.2793671    578.4797378    626.1337224
    1080.000   -1155.1149430   1654.6608969    578.5406364    631.9188256
    1090.000   -1171.6882549   1659.9933803    578.5998873    637.7045296
    1100.000   -1188.3146501   1665.2776983    578.6575491    643.4908181
    1110.000   -1204.9936512   1670.5147087    578.7136781    649.2776755
    1120.000   -1221.7247893   1675.7052465    578.7683279    655.0650867
    1130.000   -1238.5076039   1680.8501249    578.8215498    660.8530373
    1140.000   -1255.3416423   1685.9501363    578.8733932    666.6415131
    1150.000   -1272.2264597   1691.0060525    578.9239050    672.4305007
    1160.000   -1289.1616189   1696.0186257    578.9731303    678.2199869
    1170.000   -1306.1466901   1700.9885891    579.0211124    684.0099592
    1180.000   -1323.1812510   1705.9166578    579.0678925    689.8004052
    1190.000   -1340.2648860   1710.8035287    579.1135106    695.5913131
    1200.000   -1357.3971865   1715.6498818    579.1580045    701.3826716
    1210.000   -1374.5777508   1720.4563805    579.2014110    707.1744696
    1220.000   -1391.8061834   1725.2236719    579.2437649    712.9666963
    1230.000   -1409.0820956   1729.9523879    579.2851001    718.7593415
    1240.000   -1426.4051047   1734.6431449    579.3254488    724.5523950
    1250.000   -1443.7748340   1739.2965450    579.3648421    730.3458473
    1260.000   -1461.1909130   1743.9131760    579.4033098    736.1396888
    1270.000   -1478.6529769   1748.4936121    579.4408807    741.9339105
    1280.000   -1496.1606665   1753.0384141    579.4775824    747.7285035
    1290.000   -1513.7136282   1757.5481299    579.5134415    753.5234593
    1300.000   -1531.3115139   1762.0232950    579.5484833    759.3187696
    1310.000   -1548.9539807   1766.4644329    579.5827327    765.1144264
    1320.000   -1566.6406908   1770.8720550    579.6162131    770.9104217
    1330.000   -1584.3713117   1775.2466615    579.6489475    776.7067481
    1340.000   -1602.1455156   1779.5887417    579.6809577    782.5033983
    1350.000   -1619.9629797   1783.8987738    579.7122650    788.3003649
    1360.000   -1637.8233859   1788.1772258    579.7428897    794.0976413
    1370.000   -1655.7264205   1792.4245555    579.7728515    799.8952205
    1380.000   -1673.6717747   1796.6412108    579.8021694    805.6930962
    1390.000   -1691.6591439   1800.8276301    579.8308615    811.4912618
    1400.000   -1709.6882280   1804.9842424    579.8589457    817.2897114
    1410.000   -1727.7587308   1809.1114678    579.8864389    823.0884388
    1420.000   -1745.8703607   1813.2097176    579.9133575    828.8874382
    1430.000   -1764.0228299   1817.2793944    579.9397174    834.6867041
    1440.000   -1782.2158547   1821.3208927    579.9655339    840.4862308
    1450.000   -1800.4491552   1825.3345987    579.9908220    846.2860130
    1460.000   -1818.7224553   1829.3208909    580.0155957    852.0860455
    1470.000   -1837.0354828   1833.2801402    580.0398690    857.8863232
    1480.000   -1855.3879692   1837.2127097    580.0636553    863.6868412
    1490.000   -1873.7796493   1841.1189557    580.0869675    869.4875948
    1500.000   -1892.2102617   1844.9992272    580.1098180    875.2885791
    1510.000   -1910.6795484   1848.8538662    580.1322189    881.0897896
    1520.000   -1929.1872547   1852.6832083    580.1541820    886.8912220
    1530.000   -1947.7331293   1856.4875825    580.1757186    892.6928718
    1540.000   -1966.3169242   1860.2673111    580.1968396    898.4947350
    1550.000   -1984.9383945   1864.0227108    580.2175556    904.2968073
    1560.000   -2003.5972984   1867.7540917    580.2378770    910.0990848
    1570.000   -2022.2933972   1871.4617585    580.2578135    915.9015635
    1580.000   -2041.0264555   1875.1460097    580.2773750    921.7042398
    1590.000   -2059.7962404   1878.8071385    580.2965707    927.5071098
    1600.000   -2078.6025221   1882.4454326    580.3154097    933.3101700
    1610.000   -2097.4450738   1886.0611743    580.3339007    939.1134168
    1620.000   -2116.3236714   1889.6546409    580.3520523    944.9168469
    1630.000   -2135.2380933   1893.2261044    580.3698727    950.7204568
    1640.000   -2154.1881210   1896.7758319    580.3873699    956.5242433
    1650.000   -2173.1735384   1900.3040858    580.4045516    962.3282031
    1660.000   -2192.1941320   1903.8111237    580.4214254    968.1323333
    1670.000   -2211.2496910   1907.2971986    580.4379986    973.9366306
    1680.000   -2230.3400069   1910.7625590    580.4542783    979.7410923
    1690.000   -2249.4648739   1914.2074492    580.4702713    985.5457153
    1700.000   -2268.6240885   1917.6321090    580.4859844    991.3504968
    1710.000   -2287.8174494   1921.0367740    580.5014240    997.1554340
    1720.000   -2307.0447581   1924.4216758    580.5165965   1002.9605244
    1730.000   -2326.3058178   1927.7870422    580.5315079   1008.7657651
    1740.000   -2345.6004345   1931.1330967    580.5461641   1014.5711537
    1750.000   -2364.9284161   1934.4600592    580.5605711   1020.3766875
    1760.000   -2384.2895728   1937.7681461    580.5747344   1026.1823643
    1770.000   -2403.6837168   1941.0575697    580.5886594   1031.9881814
    1780.000   -2423.1106627   1944.3285390    580.6023515   1037.7941367
    1790.000   -2442.5702268   1947.5812595    580.6158158   1043.6002277
    1800.000   -2462.0622277   1950.8159333    580.6290573   1049.4064523
    1810.000   -2481.5864860   1954.0327592    580.6420809   1055.2128081
    1820.000   -2501.1428241   1957.2319325    580.6548915   1061.0192932
    1830.000   -2520.7310664   1960.4136457    580.6674935   1066.8259053
    1840.000   -2540.3510394   1963.5780879    580.6798915   1072.6326423
    1850.000   -2560.0025712   1966.7254452    580.6920899   1078.4395024
    1860.000   -2579.6854920   1969.8559008    580.7040928   1084.2464835
    1870.000   -2599.3996335   1972.9696348    580.7159046   1090.0535836
    1880.000   -2619.1448295   1976.0668247    580.7275291   1095.8608010
    1890.000   -2638.9209154   1979.1476450    580.7389704   1101.6681336
    1900.000   -2658.7277284   1982.2122675    580.7502323   1107.4755798
    1910.000   -2678.5651074   1985.2608613    580.7613184   1113.2831377
    1920.000   -2698.4328928   1988.2935929    580.7722325   1119.0908056
    1930.000   -2718.3309269   1991.3106262    580.7829780   1124.8985818
    1940.000   -2738.2590535   1994.3121227    580.7935585   1130.7064646
    1950.000   -2758.2171181   1997.2982413    580.8039772   1136.5144524
    1960.000   -2778.2049676   2000.2691384    580.8142374   1142.3225436
    1970.000   -2798.2224506   2003.2249681    580.8243424   1148.1307366
    1980.000   -2818.2694172   2006.1658824    580.8342953   1153.9390299
    1990.000   -2838.3457191   2009.0920307    580.8440991   1159.7474220
    2000.000   -2858.4512091   2012.0035603    580.8537567   1165.5559114
