#      T [K]      F [kJ/mol]    S [J/K/mol]  C_v [J/K/mol]     E [kJ/mol]
       0.000      66.2921292      0.0000000      0.0000000     66.2921292
      10.000      66.2749543      6.5413042     18.4991049     66.3403674
      20.000      66.0753568     36.7932037     78.1965419     66.8112208
      30.000      65.4953278     80.4975865    140.7754193     67.9102554
      40.000      64.4506247    128.7901626    196.2257027     69.6022312
      50.000      62.9173872    177.7897409    243.3638012     71.8068742
      60.000      60.8983181    225.7735681    283.0813235     74.4447322
      70.000      58.4078018    272.0063976    316.7176925     77.4482496
      80.000      55.4649287    316.2245731    345.4867799     80.7628946
      90.000      52.0901764    358.3859928    370.3267462     84.3449157
     100.000      48.3038784    398.5478209    391.9302357     88.1586604
     110.000      44.1255592    436.8082844    410.8149626     92.1744705
     120.000      39.5736762    473.2797349    427.3825676     96.3672444
     130.000      34.6655466    508.0764458    441.9571937    100.7154845
     140.000      29.4173598    541.3092044    454.8085232    105.2006484
     150.000      23.8442249    573.0830121    466.1652917    109.8066767
     160.000      17.9602341    603.4962171    476.2235434    114.5196288
     170.000      11.7785302    632.6403201    485.1521220    119.3273846
     180.000       5.3113747    660.6001044    493.0967065    124.2193935
     190.000      -1.4297860    687.4539255    500.1830400    129.1864598
     200.000      -8.4342589    713.2740787    506.5196510    134.2205569
     210.000     -15.6920448    738.1272007    512.2002081    139.3146674
     220.000     -23.1937846    762.0746798    517.3055733    144.4626450
     230.000     -30.9307085    785.1730606    521.9055933    149.6590954
     240.000     -38.8945896    807.4744338    526.0606556    154.8992745
     250.000     -47.0777009    829.0268052    529.8230342    160.1790004
     260.000     -55.4727769    849.8744421    533.2380480    165.4945780
     270.000     -64.0729772    870.0581940    536.3450537    170.8427352
     280.000     -72.8718539    889.6157891    539.1782956    176.2205670
     290.000     -81.8633223    908.5821063    541.7676299    181.6254885
     300.000     -91.0416330    926.9894230    544.1391426    187.0551939
     310.000    -100.4013474    944.8676422    546.3156759    192.5076217
     320.000    -109.9373149    962.2444982    548.3172758    197.9809246
     330.000    -119.6446522    979.1457433    550.1615748    203.4734431
     340.000    -129.5187243    995.5953179    551.8641170    208.9836837
     350.000    -139.5551274   1011.6155037    553.4386367    214.5102989
     360.000    -149.7496725   1027.2270636    554.8972962    220.0520704
     370.000    -160.0983713   1042.4493677    556.2508894    225.6078947
     380.000    -170.5974227   1057.3005075    557.5090168    231.1767701
     390.000    -181.2432007   1071.7974006    558.6802353    236.7577855
     400.000    -192.0322428   1085.9558838    559.7721879    242.3501107
     410.000    -202.9612400   1099.7907997    560.7917153    247.9529879
     420.000    -214.0270268   1113.3160735    561.7449523    253.5657241
     430.000    -225.2265730   1126.5447846    562.6374111    259.1876844
     440.000    -236.5569750   1139.4892303    563.4740544    264.8182863
     450.000    -248.0154487   1152.1609847    564.2593583    270.4569944
     460.000    -259.5993221   1164.5709522    564.9973669    276.1033159
     470.000    -271.3060294   1176.7294166    565.6917411    281.7567963
     480.000    -283.1331046   1188.6460852    566.3458000    287.4170163
     490.000    -295.0781758   1200.3301303    566.9625582    293.0835880
     500.000    -307.1389607   1211.7902261    567.5447580    298.7561523
     510.000    -319.3132612   1223.0345835    568.0948979    304.4343764
     520.000    -331.5989592   1234.0709813    568.6152577    310.1179511
     530.000    -343.9940123   1244.9067953    569.1079211    315.8065892
     540.000    -356.4964499   1255.5490249    569.5747948    321.5000235
     550.000    -369.1043697   1266.0043176    570.0176264    327.1980050
     560.000    -381.8159342   1276.2789920    570.4380198    332.9003013
     570.000    -394.6293675   1286.3790580    570.8374487    338.6066955
     580.000    -407.5429524   1296.3102368    571.2172693    344.3169849
     590.000    -420.5550275   1306.0779783    571.5787309    350.0309797
     600.000    -433.6639846   1315.6874779    571.9229861    355.7485022
     610.000    -446.8682661   1325.1436914    572.2510993    361.4693856
     620.000    -460.1663632   1334.4513498    572.5640545    367.1934736
     630.000    -473.5568130   1343.6149719    572.8627628    372.9206192
     640.000    -487.0381970   1352.6388769    573.1480683    378.6506842
     650.000    -500.6091386   1361.5271957    573.4207542    384.3835385
     660.000    -514.2683021   1370.2838815    573.6815476    390.1190597
     670.000    -528.0143901   1378.9127198    573.9311247    395.8571321
     680.000    -541.8461425   1387.4173373    574.1701144    401.5976469
     690.000    -555.7623344   1395.8012109    574.3991027    407.3405011
     700.000    -569.7617753   1404.0676754    574.6186358    413.0855974
     710.000    -583.8433072   1412.2199313    574.8292234    418.8328440
     720.000    -598.0058035   1420.2610517    575.0313417    424.5821537
     730.000    -612.2481677   1428.1939887    575.2254357    430.3334441
     740.000    -626.5693322   1436.0215800    575.4119218    436.0866370
     750.000    -640.9682572   1443.7465542    575.5911899    441.8416584
     760.000    -655.4439299   1451.3715368    575.7636054    447.5984380
     770.000    -669.9953631   1458.8990545    575.9295110    453.3569089
     780.000    -684.6215943   1466.3315408    576.0892284    459.1170076
     790.000    -699.3216850   1473.6713402    576.2430599    464.8786738
     800.000    -714.0947197   1480.9207122    576.3912894    470.6418501
     810.000    -728.9398051   1488.0818356    576.5341841    476.4064818
     820.000    -743.8560692   1495.1568123    576.6719958    482.1725168
     830.000    -758.8426609   1502.1476705    576.8049613    487.9399056
     840.000    -773.8987488   1509.0563684    576.9333040    493.7086007
     850.000    -789.0235207   1515.8847973    577.0572348    499.4785569
     860.000    -804.2161833   1522.6347844    577.1769525    505.2497313
     870.000    -819.4759608   1529.3080959    577.2926451    511.0220826
     880.000    -834.8020953   1535.9064394    577.4044902    516.7955714
     890.000    -850.1938452   1542.4314667    577.5126557    522.5701601
     900.000    -865.6504856   1548.8847759    577.6173005    528.3458128
     910.000    -881.1713069   1555.2679140    577.7185751    534.1224949
     920.000    -896.7556149   1561.5823788    577.8166221    539.9001735
     930.000    -912.4027304   1567.8296209    577.9115766    545.6788170
     940.000    -928.1119880   1574.0110459    578.0035668    551.4583952
     950.000    -943.8827364   1580.1280161    578.0927143    557.2388789
     960.000    -959.7143379   1586.1818523    578.1791345    563.0202404
     970.000    -975.6061673   1592.1738352    578.2629372    568.8024529
     980.000    -991.5576125   1598.1052074    578.3442266    574.5854907
     990.000   -1007.5680735   1603.9771745    578.4231019    580.3693293
    1000.000   -1023.6369619   1609.7909069    578.4996572    586.1539450
