#      T [K]      F [kJ/mol]    S [J/K/mol]  C_v [J/K/mol]     E [kJ/mol]
       0.000      46.9553498      0.0000000      0.0000000     46.9553498
      10.000      46.9439609      4.4378043     13.0555674     46.9883390
      20.000      46.8025539     26.4018513     56.9448986     47.3305909
      30.000      46.3848950     57.9772773    100.9774038     48.1242133
      40.000      45.6337933     92.4384628    139.4629925     49.3313318
      50.000      44.5353465    127.1774444    172.1961182     50.8942187
      60.000      43.0930785    161.0860958    199.8341421     52.7582443
      70.000      41.3179732    193.6998205    223.2865407     54.8769606
      80.000      39.2239381    224.8612648    243.3914023     57.2128393
      90.000      36.8256384    254.5575190    260.7982548     59.7358151
     100.000      34.1375061    282.8390104    275.9818207     62.4214071
     110.000      31.1733244    309.7808381    289.2922848     65.2492166
     120.000      27.9460805    335.4652696    300.9990818     68.2019129
     130.000      24.4679370    359.9741836    311.3195104     71.2645808
     140.000      20.7502534    383.3859795    320.4353079     74.4242905
     150.000      16.8036280    405.7744259    328.5018762     77.6697919
     160.000      12.6379461    427.2083395    335.6535718     80.9912804
     170.000       8.2624295    447.7516165    342.0070409     84.3802043
     180.000       3.6856849    467.4634161    347.6636184     87.8290997
     190.000      -1.0842500    486.3984112    352.7112646     91.3314482
     200.000      -6.0398627    504.6070664    357.2262400     94.8815506
     210.000     -11.1741257    522.1359251    361.2745979     98.4744185
     220.000     -16.4804586    539.0278964    364.9135200    102.1056786
     230.000     -21.9526929    555.3225338    368.1925060    105.7714899
     240.000     -27.5850400    571.0563021    371.1544246    109.4684725
     250.000     -33.3720617    586.2628306    373.8364332    113.1936459
     260.000     -39.3086429    600.9731497    376.2707780    116.9443761
     270.000     -45.3899665    615.2159118    378.4854849    120.7183297
     280.000     -51.6114911    629.0175942    380.5049531    124.5134353
     290.000     -57.9689299    642.4026867    382.3504654    128.3278492
     300.000     -64.4582319    655.3938632    384.0406228    132.1599270
     310.000     -71.0755643    668.0121378    385.5917174    136.0081984
     320.000     -77.8172968    680.2770078    387.0180493    139.8713457
     330.000     -84.6799870    692.2065835    388.3321982    143.7481856
     340.000     -91.6603671    703.8177057    389.5452551    147.6376528
     350.000     -98.7553320    715.1260528    390.6670195    151.5387865
     360.000    -105.9619277    726.1462380    391.7061697    155.4507179
     370.000    -113.2773417    736.8918973    392.6704074    159.3726603
     380.000    -120.6988931    747.3757696    393.5665825    163.3038993
     390.000    -128.2240243    757.6097687    394.4008001    167.2437855
     400.000    -135.8502929    767.6050497    395.1785131    171.1917270
     410.000    -143.5753645    777.3720688    395.9046016    175.1471837
     420.000    -151.3970061    786.9206375    396.5834417    179.1096616
     430.000    -159.3130799    796.2599722    397.2189654    183.0787082
     440.000    -167.3215371    805.3987396    397.8147123    187.0539084
     450.000    -175.4204133    814.3450975    398.3738747    191.0348805
     460.000    -183.6078233    823.1067324    398.8993368    195.0212735
     470.000    -191.8819565    831.6908939    399.3937090    199.0127637
     480.000    -200.2410725    840.1044260    399.8593580    203.0090520
     490.000    -208.6834978    848.3537961    400.2984332    207.0098623
     500.000    -217.2076216    856.4451205    400.7128896    211.0149386
     510.000    -225.8118927    864.3841896    401.1045085    215.0240440
     520.000    -234.4948162    872.1764891    401.4749150    219.0369581
     530.000    -243.2549507    879.8272211    401.8255942    223.0534765
     540.000    -252.0909052    887.3413222    402.1579054    227.0734088
     550.000    -261.0013373    894.7234816    402.4730938    231.0965775
     560.000    -269.9849499    901.9781560    402.7723026    235.1228174
     570.000    -279.0404896    909.1095851    403.0565820    239.1519738
     580.000    -288.1667443    916.1218048    403.3268983    243.1839025
     590.000    -297.3625412    923.0186601    403.5841418    247.2184682
     600.000    -306.6267452    929.8038162    403.8291336    251.2555445
     610.000    -315.9582569    936.4807696    404.0626320    255.2950126
     620.000    -325.3560111    943.0528584    404.2853382    259.3367612
     630.000    -334.8189751    949.5232710    404.4979011    263.3806856
     640.000    -344.3461477    955.8950549    404.7009221    267.4266874
     650.000    -353.9365572    962.1711250    404.8949590    271.4746741
     660.000    -363.5892605    968.3542710    405.0805297    275.5245584
     670.000    -373.3033418    974.4471639    405.2581159    279.5762581
     680.000    -383.0779115    980.4523633    405.4281654    283.6296956
     690.000    -392.9121049    986.3723226    405.5910957    287.6847976
     700.000    -402.8050816    992.2093953    405.7472958    291.7414950
     710.000    -412.7560241    997.9658400    405.8971285    295.7997223
     720.000    -422.7641369   1003.6438256    406.0409331    299.8594175
     730.000    -432.8286460   1009.2454356    406.1790263    303.9205220
     740.000    -442.9487977   1014.7726726    406.3117047    307.9829800
     750.000    -453.1238580   1020.2274626    406.4392459    312.0467389
     760.000    -463.3531117   1025.6116583    406.5619100    316.1117487
     770.000    -473.6358618   1030.9270435    406.6799412    320.1779617
     780.000    -483.9714289   1036.1753355    406.7935684    324.2453328
     790.000    -494.3591504   1041.3581892    406.9030068    328.3138191
     800.000    -504.7983799   1046.4771994    407.0084587    332.3833797
     810.000    -515.2884867   1051.5339041    407.1101141    336.4539756
     820.000    -525.8288552   1056.5297867    407.2081523    340.5255699
     830.000    -536.4188845   1061.4662791    407.3027420    344.5981272
     840.000    -547.0579875   1066.3447634    407.3940422    348.6716138
     850.000    -557.7455908   1071.1665746    407.4822029    352.7459975
     860.000    -568.4811343   1075.9330025    407.5673657    356.8212478
     870.000    -579.2640704   1080.6452940    407.6496644    360.8973353
     880.000    -590.0938638   1085.3046543    407.7292253    364.9742320
     890.000    -600.9699910   1089.9122495    407.8061682    369.0519111
     900.000    -611.8919400   1094.4692078    407.8806059    373.1303470
     910.000    -622.8592100   1098.9766211    407.9526458    377.2095152
     920.000    -633.8713108   1103.4355468    408.0223891    381.2893923
     930.000    -644.9277627   1107.8470090    408.0899321    385.3699557
     940.000    -656.0280961   1112.2120000    408.1553661    389.4511839
     950.000    -667.1718510   1116.5314813    408.2187775    393.5330562
     960.000    -678.3585771   1120.8063855    408.2802486    397.6155530
     970.000    -689.5878332   1125.0376167    408.3398574    401.6986550
     980.000    -700.8591868   1129.2260520    408.3976781    405.7823441
     990.000    -712.1722144   1133.3725427    408.4537812    409.8666028
    1000.000    -723.5265006   1137.4779149    408.5082339    413.9514143
    1010.000    -734.9216383   1141.5429708    408.5611000    418.0367622
    1020.000    -746.3572282   1145.5684896    408.6124404    422.1226312
    1030.000    -757.8328788   1149.5552281    408.6623130    426.2090062
    1040.000    -769.3482060   1153.5039218    408.7107731    430.2958727
    1050.000    -780.9028328   1157.4152856    408.7578733    434.3832171
    1060.000    -792.4963896   1161.2900145    408.8036638    438.4710258
    1070.000    -804.1285133   1165.1287845    408.8481927    442.5592862
    1080.000    -815.7988476   1168.9322530    408.8915057    446.6479856
    1090.000    -827.5070428   1172.7010598    408.9336466    450.7371124
    1100.000    -839.2527553   1176.4358274    408.9746571    454.8266548
    1110.000    -851.0356479   1180.1371619    409.0145771    458.9166019
    1120.000    -862.8553891   1183.8056535    409.0534450    463.0069428
    1130.000    -874.7116534   1187.4418768    409.0912972    467.0976674
    1140.000    -886.6041209   1191.0463916    409.1281688    471.1887655
    1150.000    -898.5324774   1194.6197434    409.1640931    475.2802276
    1160.000    -910.4964137   1198.1624638    409.1991024    479.3720443
    1170.000    -922.4956263   1201.6750709    409.2332273    483.4642067
    1180.000    -934.5298164   1205.1580699    409.2664973    487.5567060
    1190.000    -946.5986906   1208.6119533    409.2989406    491.6495339
    1200.000    -958.7019600   1212.0372018    409.3305844    495.7426822
    1210.000    -970.8393407   1215.4342841    409.3614546    499.8361430
    1220.000    -983.0105534   1218.8036575    409.3915762    503.9299088
    1230.000    -995.2153230   1222.1457684    409.4209731    508.0239721
    1240.000   -1007.4533793   1225.4610526    409.4496684    512.1183259
    1250.000   -1019.7244561   1228.7499354    409.4776841    516.2129632
    1260.000   -1032.0282914   1232.0128324    409.5050415    520.3078774
    1270.000   -1044.3646275   1235.2501491    409.5317611    524.4030619
    1280.000   -1056.7332104   1238.4622820    409.5578623    528.4985105
    1290.000   -1069.1337904   1241.6496183    409.5833642    532.5942172
    1300.000   -1081.5661214   1244.8125364    409.6082849    536.6901759
    1310.000   -1094.0299610   1247.9514061    409.6326418    540.7863810
    1320.000   -1106.5250706   1251.0665890    409.6564519    544.8828269
    1330.000   -1119.0512150   1254.1584385    409.6797313    548.9795083
    1340.000   -1131.6081627   1257.2273004    409.7024957    553.0764198
    1350.000   -1144.1956855   1260.2735126    409.7247602    557.1735565
    1360.000   -1156.8135586   1263.2974059    409.7465391    561.2709134
    1370.000   -1169.4615603   1266.2993037    409.7678466    565.3684857
    1380.000   -1182.1394724   1269.2795226    409.7886960    569.4662688
    1390.000   -1194.8470795   1272.2383724    409.8091005    573.5642581
    1400.000   -1207.5841696   1275.1761564    409.8290725    577.6624494
    1410.000   -1220.3505334   1278.0931714    409.8486242    581.7608382
    1420.000   -1233.1459648   1280.9897079    409.8677672    585.8594205
    1430.000   -1245.9702603   1283.8660507    409.8865129    589.9581922
    1440.000   -1258.8232194   1286.7224784    409.9048721    594.0571495
    1450.000   -1271.7046444   1289.5592640    409.9228555    598.1562884
    1460.000   -1284.6143401   1292.3766750    409.9404730    602.2556053
    1470.000   -1297.5521142   1295.1749734    409.9577347    606.3550967
    1480.000   -1310.5177767   1297.9544160    409.9746500    610.4547589
    1490.000   -1323.5111405   1300.7152544    409.9912280    614.5545886
    1500.000   -1336.5320206   1303.4577353    410.0074778    618.6545824
    1510.000   -1349.5802348   1306.1821006    410.0234078    622.7547370
    1520.000   -1362.6556030   1308.8885872    410.0390264    626.8550495
    1530.000   -1375.7579477   1311.5774276    410.0543417    630.9555166
    1540.000   -1388.8870935   1314.2488499    410.0693614    635.0561353
    1550.000   -1402.0428674   1316.9030776    410.0840931    639.1569028
    1560.000   -1415.2250985   1319.5403300    410.0985441    643.2578162
    1570.000   -1428.4336181   1322.1608223    410.1127215    647.3588728
    1580.000   -1441.6682598   1324.7647656    410.1266321    651.4600698
    1590.000   -1454.9288590   1327.3523670    410.1402826    655.5614046
    1600.000   -1468.2152533   1329.9238300    410.1536793    659.6628746
    1610.000   -1481.5272824   1332.4793539    410.1668286    663.7644773
    1620.000   -1494.8647879   1335.0191347    410.1797366    667.8662104
    1630.000   -1508.2276133   1337.5433648    410.1924089    671.9680713
    1640.000   -1521.6156040   1340.0522328    410.2048514    676.0700578
    1650.000   -1535.0286074   1342.5459242    410.2170696    680.1721676
    1660.000   -1548.4664725   1345.0246211    410.2290688    684.2743984
    1670.000   -1561.9290504   1347.4885022    410.2408542    688.3767482
    1680.000   -1575.4161938   1349.9377432    410.2524309    692.4792148
    1690.000   -1588.9277571   1352.3725167    410.2638037    696.5817962
    1700.000   -1602.4635964   1354.7929922    410.2749774    700.6844902
    1710.000   -1616.0235698   1357.1993362    410.2859566    704.7872951
    1720.000   -1629.6075366   1359.5917124    410.2967458    708.8902087
    1730.000   -1643.2153580   1361.9702817    410.3073494    712.9932294
    1740.000   -1656.8468967   1364.3352022    410.3177716    717.0963551
    1750.000   -1670.5020171   1366.6866293    410.3280164    721.1995842
    1760.000   -1684.1805849   1369.0247158    410.3380880    725.3029149
    1770.000   -1697.8824674   1371.3496118    410.3479901    729.4063454
    1780.000   -1711.6075336   1373.6614650    410.3577265    733.5098741
    1790.000   -1725.3556537   1375.9604207    410.3673010    737.6134994
    1800.000   -1739.1266995   1378.2466217    410.3767170    741.7172196
    1810.000   -1752.9205441   1380.5202085    410.3859782    745.8210332
    1820.000   -1766.7370621   1382.7813191    410.3950877    749.9249387
    1830.000   -1780.5761294   1385.0300895    410.4040490    754.0289345
    1840.000   -1794.4376232   1387.2666535    410.4128651    758.1330192
    1850.000   -1808.3214222   1389.4911424    410.4215393    762.2371913
    1860.000   -1822.2274062   1391.7036859    410.4300746    766.3414495
    1870.000   -1836.1554565   1393.9044112    410.4384739    770.4457923
    1880.000   -1850.1054555   1396.0934436    410.4467400    774.5502185
    1890.000   -1864.0772868   1398.2709066    410.4548758    778.6547267
    1900.000   -1878.0708355   1400.4369216    410.4628840    782.7593156
    1910.000   -1892.0859875   1402.5916081    410.4707673    786.8639840
    1920.000   -1906.1226302   1404.7350837    410.4785282    790.9687306
    1930.000   -1920.1806522   1406.8674644    410.4861692    795.0735541
    1940.000   -1934.2599429   1408.9888642    410.4936929    799.1784535
    1950.000   -1948.3603932   1411.0993953    410.5011015    803.2834276
    1960.000   -1962.4818950   1413.1991685    410.5083974    807.3884752
    1970.000   -1976.6243411   1415.2882925    410.5155830    811.4935952
    1980.000   -1990.7876257   1417.3668748    410.5226603    815.5987865
    1990.000   -2004.9716438   1419.4350210    410.5296316    819.7040480
    2000.000   -2019.1762917   1421.4928352    410.5364990    823.8093788
