#      T [K]      F [kJ/mol]    S [J/K/mol]  C_v [J/K/mol]     E [kJ/mol]
       0.000       0.9529530      0.0000000      0.0000000      0.9529530
      10.000       0.9509342      0.8227125      2.3689762      0.9591613
      20.000       0.9259367      4.5615979      9.3575257      1.0171686
      30.000       0.8558715      9.4983060     14.9546744      1.1408207
      40.000       0.7365042     14.3070301     18.3396757      1.3087854
      50.000       0.5713673     18.6342288     20.3515518      1.5030787
      60.000       0.3654860     22.4635737     21.5992529      1.7133004
      70.000       0.1235445     25.8583974     22.4126262      1.9336323
      80.000      -0.1504712     28.8896295     22.9673966      2.1606992
      90.000      -0.4532424     31.6187634     23.3606853      2.3924463
     100.000      -0.7820070     34.0957135     23.6487190      2.6275644
     110.000      -1.1344497     36.3603125     23.8655399      2.8651846
     120.000      -1.5086121     38.4443514     24.0326059      3.1047101
     130.000      -1.9028206     40.3733746     24.1639319      3.3457181
     140.000      -2.3156323     42.1680979     24.2689607      3.5879014
     150.000      -2.7457918     43.8454895     24.3542302      3.8310317
     160.000      -3.1921980     45.4195861     24.4243771      4.0749357
     170.000      -3.6538784     46.9021090     24.4827603      4.3194801
     180.000      -4.1299680     48.3029340     24.5318595      4.5645601
     190.000      -4.6196929     49.6304499     24.5735362      4.8100926
     200.000      -5.1223567     50.8918377     24.6092095      5.0560108
     210.000      -5.6373299     52.0932876     24.6399759      5.3022605
     220.000      -6.1640407     53.2401706     24.6666932      5.5487969
     230.000      -6.7019672     54.3371750     24.6900401      5.7955831
     240.000      -7.2506317     55.3884163     24.7105593      6.0425883
     250.000      -7.8095951     56.3975257     24.7286886      6.2897863
     260.000      -8.3784525     57.3677222     24.7447845      6.5371553
     270.000      -8.9568294     58.3018727     24.7591395      6.7846762
     280.000      -9.5443784     59.2025409     24.7719955      7.0323331
     290.000     -10.1407763     60.0720280     24.7835539      7.2801118
     300.000     -10.7457219     60.9124077     24.7939832      7.5280004
     310.000     -11.3589337     61.7255545     24.8034257      7.7759882
     320.000     -11.9801479     62.5131686     24.8120019      8.0240660
     330.000     -12.6091171     63.2767964     24.8198144      8.2722257
     340.000     -13.2456086     64.0178490     24.8269513      8.5204600
     350.000     -13.8894032     64.7376168     24.8334881      8.7687627
     360.000     -14.5402940     65.4372833     24.8394903      9.0171280
     370.000     -15.1980855     66.1179362     24.8450144      9.2655509
     380.000     -15.8625927     66.7805778     24.8501100      9.5140269
     390.000     -16.5336401     67.4261332     24.8548201      9.7625518
     400.000     -17.2110612     68.0554584     24.8591827     10.0111221
     410.000     -17.8946978     68.6693470     24.8632311     10.2597344
     420.000     -18.5843992     69.2685357     24.8669947     10.5083858
     430.000     -19.2800218     69.8537100     24.8704996     10.7570735
     440.000     -19.9814288     70.4255087     24.8737690     11.0057950
     450.000     -20.6884894     70.9845279     24.8768235     11.2545481
     460.000     -21.4010786     71.5313249     24.8796816     11.5033308
     470.000     -22.1190769     72.0664214     24.8823596     11.7521412
     480.000     -22.8423697     72.5903065     24.8848724     12.0009775
     490.000     -23.5708472     73.1034394     24.8872333     12.2498381
     500.000     -24.3044041     73.6062515     24.8894543     12.4987217
     510.000     -25.0429392     74.0991489     24.8915463     12.7476268
     520.000     -25.7863553     74.5825144     24.8935189     12.9965522
     530.000     -26.5345589     75.0567088     24.8953812     13.2454968
     540.000     -27.2874600     75.5220731     24.8971412     13.4944595
     550.000     -28.0449720     75.9789296     24.8988063     13.7434393
     560.000     -28.8070113     76.4275832     24.9003831     13.9924353
     570.000     -29.5734973     76.8683227     24.9018779     14.2414467
     580.000     -30.3443523     77.3014222     24.9032961     14.4904726
     590.000     -31.1195011     77.7271415     24.9046429     14.7395124
     600.000     -31.8988713     78.1457276     24.9059231     14.9885652
     610.000     -32.6823927     78.5574152     24.9071409     15.2376306
     620.000     -33.4699974     78.9624278     24.9083003     15.4867079
     630.000     -34.2616197     79.3609780     24.9094051     15.7357964
     640.000     -35.0571961     79.7532685     24.9104586     15.9848958
     650.000     -35.8566649     80.1394928     24.9114638     16.2340054
     660.000     -36.6599663     80.5198352     24.9124238     16.4831249
     670.000     -37.4670425     80.8944721     24.9133412     16.7322538
     680.000     -38.2778373     81.2635719     24.9142185     16.9813916
     690.000     -39.0922961     81.6272958     24.9150579     17.2305380
     700.000     -39.9103658     81.9857978     24.9158617     17.4796926
     710.000     -40.7319951     82.3392257     24.9166318     17.7288551
     720.000     -41.5571339     82.6877209     24.9173700     17.9780252
     730.000     -42.3857335     83.0314191     24.9180782     18.2272024
     740.000     -43.2177467     83.3704505     24.9187579     18.4763866
     750.000     -44.0531274     83.7049399     24.9194106     18.7255775
     760.000     -44.8918308     84.0350073     24.9200377     18.9747748
     770.000     -45.7338132     84.3607680     24.9206406     19.2239782
     780.000     -46.5790322     84.6823329     24.9212204     19.4731875
     790.000     -47.4274462     84.9998085     24.9217784     19.7224025
     800.000     -48.2790150     85.3132976     24.9223157     19.9716230
     810.000     -49.1336992     85.6228987     24.9228331     20.2208488
     820.000     -49.9914604     85.9287073     24.9233318     20.4700796
     830.000     -50.8522610     86.2308149     24.9238126     20.7193153
     840.000     -51.7160646     86.5293100     24.9242763     20.9685558
     850.000     -52.5828355     86.8242780     24.9247237     21.2178008
     860.000     -53.4525387     87.1158011     24.9251557     21.4670502
     870.000     -54.3251403     87.4039588     24.9255729     21.7163039
     880.000     -55.2006069     87.6888279     24.9259759     21.9655616
     890.000     -56.0789061     87.9704825     24.9263654     22.2148234
     900.000     -56.9600061     88.2489944     24.9267420     22.4640889
     910.000     -57.8438758     88.5244329     24.9271063     22.7133582
     920.000     -58.7304847     88.7968649     24.9274588     22.9626310
     930.000     -59.6198033     89.0663554     24.9278000     23.2119073
     940.000     -60.5118022     89.3329672     24.9281303     23.4611870
     950.000     -61.4064532     89.5967611     24.9284503     23.7104699
     960.000     -62.3037283     89.8577960     24.9287604     23.9597559
     970.000     -63.2036001     90.1161290     24.9290609     24.2090450
     980.000     -64.1060420     90.3718154     24.9293522     24.4583371
     990.000     -65.0110278     90.6249089     24.9296348     24.7076321
    1000.000     -65.9185317     90.8754615     24.9299090     24.9569298
