#      T [K]      F [kJ/mol]    S [J/K/mol]  C_v [J/K/mol]     E [kJ/mol]
       0.000      27.2214688      0.0000000      0.0000000     27.2214688
      10.000      27.2204152      0.4164306      1.3304641     27.2245795
      20.000      27.2028164      3.8493092     11.3934732     27.2798026
      30.000      27.1291552     11.4849961     27.9254776     27.4737051
      40.000      26.9636300     21.9801217     45.9077136     27.8428349
      50.000      26.6841766     34.1015819     63.1432019     28.3892557
      60.000      26.2789957     47.0133287     78.6306259     29.0997954
      70.000      25.7431194     60.1691730     92.0597234     29.9549615
      80.000      25.0759399     73.2314633    103.5342116     30.9344570
      90.000      24.2794576     86.0065296    113.3289618     32.0200452
     100.000      23.3571099     98.3932377    121.7414377     33.1964337
     110.000      22.3130418    110.3462728    129.0294236     34.4511319
     120.000      21.1516761    121.8523715    135.3973840     35.7739607
     130.000      19.8774706    132.9159249    141.0025126     37.1565408
     140.000      18.4947876    143.5506149    145.9656031     38.5918737
     150.000      17.0078272    153.7746797    150.3809624     40.0740292
     160.000      15.4205956    163.6082756    154.3239035     41.5979197
     170.000      13.7368945    173.0720253    157.8559741     43.1591388
     180.000      11.9603202    182.1862298    161.0284887     44.7538416
     190.000      10.0942697    190.9704520    163.8849086     46.3786556
     200.000       8.1419489    199.4433092    166.4624727     48.0306108
     210.000       6.1063827    207.6223835    168.7933516     49.7070832
     220.000       3.9904253    215.5241989    170.9054972     51.4057491
     230.000       1.7967712    223.1642369    172.8232941     53.1245457
     240.000      -0.4720352    230.5569738    174.5680769     54.8616385
     250.000      -2.8135891    237.7159289    176.1585539     56.6153931
     260.000      -5.2256166    244.6537189    177.6111606     58.3843503
     270.000      -7.7059656    251.3821139    178.9403594     60.1672052
     280.000     -10.2525976    257.9120941    180.1588960     61.9627888
     290.000     -12.8635803    264.2539040    181.2780203     63.7700519
     300.000     -15.5370804    270.4171049    182.3076770     65.5880511
     310.000     -18.2713569    276.4106242    183.2566704     67.4159366
     320.000     -21.0647551    282.2428026    184.1328078     69.2529417
     330.000     -23.9157012    287.9214373    184.9430233     71.0983731
     340.000     -26.8226964    293.4538221    185.6934857     72.9516031
     350.000     -29.7843129    298.8467856    186.3896922     74.8120621
     360.000     -32.7991888    304.1067257    187.0365492     76.6792325
     370.000     -35.8660241    309.2396413    187.6384440     78.5526432
     380.000     -38.9835770    314.2511622    188.1993055     80.4318646
     390.000     -42.1506603    319.1465760    188.7226586     82.3165043
     400.000     -45.3661381    323.9308536    189.2116709     84.2062034
     410.000     -48.6289226    328.6086716    189.6691933     86.1006328
     420.000     -51.9379714    333.1844339    190.0977963     87.9994909
     430.000     -55.2922849    337.6622907    190.4998012     89.9025001
     440.000     -58.6909039    342.0461572    190.8773076     91.8094052
     450.000     -62.1329071    346.3397290    191.2322173     93.7199710
     460.000     -65.6174092    350.5464983    191.5662561     95.6339800
     470.000     -69.1435587    354.6697670    191.8809920     97.5512318
     480.000     -72.7105366    358.7126602    192.1778520     99.4715403
     490.000     -76.3175539    362.6781377    192.4581365    101.3947336
     500.000     -79.9638507    366.5690048    192.7230324    103.3206518
     510.000     -83.6486942    370.3879230    192.9736244    105.2491465
     520.000     -87.3713777    374.1374185    193.2109051    107.1800799
     530.000     -91.1312192    377.8198915    193.4357843    109.1133233
     540.000     -94.9275598    381.4376237    193.6490965    111.0487570
     550.000     -98.7597631    384.9927860    193.8516086    112.9862692
     560.000    -102.6272138    388.4874453    194.0440261    114.9257555
     570.000    -106.5293169    391.9235705    194.2269986    116.8671183
     580.000    -110.4654964    395.3030387    194.4011251    118.8102660
     590.000    -114.4351948    398.6276406    194.5669587    120.7551131
     600.000    -118.4378720    401.8990855    194.7250105    122.7015793
     610.000    -122.4730048    405.1190062    194.8757534    124.6495890
     620.000    -126.5400856    408.2889630    195.0196253    126.5990714
     630.000    -130.6386225    411.4104483    195.1570323    128.5499600
     640.000    -134.7681378    414.4848899    195.2883513    130.5021918
     650.000    -138.9281680    417.5136552    195.4139326    132.4557079
     660.000    -143.1182630    420.4980536    195.5341018    134.4104524
     670.000    -147.3379854    423.4393407    195.6491620    136.3663729
     680.000    -151.5869101    426.3387201    195.7593957    138.3234196
     690.000    -155.8646239    429.1973471    195.8650662    140.2815456
     700.000    -160.1707249    432.0163306    195.9664195    142.2407065
     710.000    -164.5048220    434.7967356    196.0636852    144.2008603
     720.000    -168.8665345    437.5395858    196.1570782    146.1619673
     730.000    -173.2554918    440.2458650    196.2467994    148.1239897
     740.000    -177.6713330    442.9165198    196.3330370    150.0868917
     750.000    -182.1137065    445.5524611    196.4159675    152.0506394
     760.000    -186.5822694    448.1545658    196.4957564    154.0152006
     770.000    -191.0766878    450.7236784    196.5725591    155.9805446
     780.000    -195.5966358    453.2606129    196.6465216    157.9466423
     790.000    -200.1417954    455.7661537    196.7177810    159.9134660
     800.000    -204.7118567    458.2410575    196.7864665    161.8809893
     810.000    -209.3065169    460.6860544    196.8526996    163.8491871
     820.000    -213.9254805    463.1018487    196.9165948    165.8180355
     830.000    -218.5684588    465.4891210    196.9782601    167.7875116
     840.000    -223.2351700    467.8485281    197.0377974    169.7575936
     850.000    -227.9253386    470.1807051    197.0953027    171.7282608
     860.000    -232.6386954    472.4862658    197.1508669    173.6994932
     870.000    -237.3749772    474.7658036    197.2045758    175.6712719
     880.000    -242.1339266    477.0198925    197.2565105    177.6435788
     890.000    -246.9152920    479.2490882    197.3067478    179.6163965
     900.000    -251.7188272    481.4539284    197.3553605    181.5897083
     910.000    -256.5442912    483.6349337    197.4024175    183.5634985
     920.000    -261.3914481    485.7926085    197.4479840    185.5377517
     930.000    -266.2600672    487.9274415    197.4921219    187.5124534
     940.000    -271.1499224    490.0399064    197.5348901    189.4875896
     950.000    -276.0607923    492.1304623    197.5763443    191.4631468
     960.000    -280.9924601    494.1995546    197.6165375    193.4391123
     970.000    -285.9447133    496.2476153    197.6555201    195.4154736
     980.000    -290.9173437    498.2750638    197.6933399    197.3922188
     990.000    -295.9101472    500.2823069    197.7300425    199.3693366
    1000.000    -300.9229238    502.2697399    197.7656712    201.3468161
    1010.000    -305.9554773    504.2377464    197.8002674    203.3246466
    1020.000    -311.0076152    506.1866993    197.8338704    205.3028181
    1030.000    -316.0791489    508.1169609    197.8665176    207.2813208
    1040.000    -321.1698933    510.0288834    197.8982448    209.2601454
    1050.000    -326.2796666    511.9228090    197.9290861    211.2392828
    1060.000    -331.4082906    513.7990706    197.9590740    213.2187243
    1070.000    -336.5555902    515.6579923    197.9882395    215.1984615
    1080.000    -341.7213937    517.4998890    198.0166124    217.1784864
    1090.000    -346.9055323    519.3250674    198.0442210    219.1587912
    1100.000    -352.1078403    521.1338261    198.0710924    221.1393684
    1110.000    -357.3281550    522.9264556    198.0972524    223.1202107
    1120.000    -362.5663166    524.7032391    198.1227259    225.1013112
    1130.000    -367.8221679    526.4644522    198.1475366    227.0826630
    1140.000    -373.0955546    528.2103635    198.1717073    229.0642598
    1150.000    -378.3863251    529.9412349    198.1952595    231.0460951
    1160.000    -383.6943301    531.6573216    198.2182143    233.0281630
    1170.000    -389.0194230    533.3588722    198.2405915    235.0104575
    1180.000    -394.3614599    535.0461295    198.2624103    236.9929729
    1190.000    -399.7202988    536.7193299    198.2836891    238.9757039
    1200.000    -405.0958004    538.3787044    198.3044455    240.9586450
    1210.000    -410.4878275    540.0244782    198.3246963    242.9417911
    1220.000    -415.8962453    541.6568710    198.3444578    244.9251373
    1230.000    -421.3209211    543.2760973    198.3637457    246.9086787
    1240.000    -426.7617241    544.8823667    198.3825748    248.8924106
    1250.000    -432.2185259    546.4758837    198.4009595    250.8763287
    1260.000    -437.6911999    548.0568479    198.4189138    252.8604284
    1270.000    -443.1796217    549.6254545    198.4364508    254.8447056
    1280.000    -448.6836685    551.1818942    198.4535834    256.8291561
    1290.000    -454.2032196    552.7263531    198.4703238    258.8137759
    1300.000    -459.7381562    554.2590134    198.4866840    260.7985613
    1310.000    -465.2883611    555.7800531    198.5026753    262.7835084
    1320.000    -470.8537191    557.2896460    198.5183086    264.7686136
    1330.000    -476.4341165    558.7879623    198.5335946    266.7538734
    1340.000    -482.0294413    560.2751684    198.5485435    268.7392844
    1350.000    -487.6395833    561.7514270    198.5631650    270.7248432
    1360.000    -493.2644339    563.2168974    198.5774686    272.7105466
    1370.000    -498.9038858    564.6717353    198.5914635    274.6963915
    1380.000    -504.5578337    566.1160931    198.6051584    276.6823749
    1390.000    -510.2261733    567.5501201    198.6185619    278.6684937
    1400.000    -515.9088021    568.9739623    198.6316821    280.6547452
    1410.000    -521.6056190    570.3877628    198.6445269    282.6411264
    1420.000    -527.3165244    571.7916614    198.6571040    284.6276348
    1430.000    -533.0414197    573.1857954    198.6694207    286.6142676
    1440.000    -538.7802082    574.5702990    198.6814842    288.6010224
    1450.000    -544.5327940    575.9453038    198.6933013    290.5878965
    1460.000    -550.2990830    577.3109388    198.7048787    292.5748876
    1470.000    -556.0789820    578.6673301    198.7162228    294.5619933
    1480.000    -561.8723992    580.0146017    198.7273398    296.5492113
    1490.000    -567.6792440    581.3528748    198.7382357    298.5365394
    1500.000    -573.4994271    582.6822683    198.7489164    300.5239753
    1510.000    -579.3328602    584.0028988    198.7593875    302.5115170
    1520.000    -585.1794563    585.3148807    198.7696543    304.4991624
    1530.000    -591.0391294    586.6183260    198.7797222    306.4869094
    1540.000    -596.9117947    587.9133447    198.7895963    308.4747562
    1550.000    -602.7973685    589.2000447    198.7992814    310.4627007
    1560.000    -608.6957682    590.4785317    198.8087824    312.4507412
    1570.000    -614.6069121    591.7489095    198.8181039    314.4388758
    1580.000    -620.5307197    593.0112800    198.8272504    316.4271027
    1590.000    -626.4671114    594.2657431    198.8362263    318.4154202
    1600.000    -632.4160085    595.5123970    198.8450356    320.4038266
    1610.000    -638.3773336    596.7513379    198.8536826    322.3923204
    1620.000    -644.3510099    597.9826603    198.8621712    324.3808998
    1630.000    -650.3369617    599.2064571    198.8705052    326.3695633
    1640.000    -656.3351143    600.4228193    198.8786883    328.3583094
    1650.000    -662.3453936    601.6318365    198.8867242    330.3471366
    1660.000    -668.3677268    602.8335965    198.8946164    332.3360434
    1670.000    -674.4020417    604.0281857    198.9023682    334.3250284
    1680.000    -680.4482669    605.2156888    198.9099830    336.3140903
    1690.000    -686.5063321    606.3961892    198.9174640    338.3032276
    1700.000    -692.5761676    607.5697687    198.9248142    340.2924391
    1710.000    -698.6577047    608.7365077    198.9320368    342.2817235
    1720.000    -704.7508752    609.8964853    198.9391345    344.2710794
    1730.000    -710.8556121    611.0497791    198.9461104    346.2605058
    1740.000    -716.9718488    612.1964655    198.9529672    348.2500013
    1750.000    -723.0995196    613.3366196    198.9597075    350.2395647
    1760.000    -729.2385596    614.4703152    198.9663340    352.2291950
    1770.000    -735.3889046    615.5976247    198.9728492    354.2188910
    1780.000    -741.5504911    616.7186195    198.9792556    356.2086516
    1790.000    -747.7232562    617.8333698    198.9855555    358.1984758
    1800.000    -753.9071379    618.9419446    198.9917515    360.1883624
    1810.000    -760.1020747    620.0444117    198.9978456    362.1783105
    1820.000    -766.3080060    621.1408379    199.0038402    364.1683190
    1830.000    -772.5248716    622.2312888    199.0097374    366.1583870
    1840.000    -778.7526121    623.3158291    199.0155392    368.1485134
    1850.000    -784.9911687    624.3945222    199.0212478    370.1386974
    1860.000    -791.2404832    625.4674308    199.0268650    372.1289381
    1870.000    -797.5004982    626.5346164    199.0323929    374.1192344
    1880.000    -803.7711567    627.5961395    199.0378333    376.1095856
    1890.000    -810.0524023    628.6520599    199.0431881    378.0999908
    1900.000    -816.3441794    629.7024361    199.0484590    380.0904491
    1910.000    -822.6464328    630.7473259    199.0536478    382.0809597
    1920.000    -828.9591078    631.7867863    199.0587562    384.0715218
    1930.000    -835.2821506    632.8208731    199.0637858    386.0621346
    1940.000    -841.6155076    633.8496417    199.0687383    388.0527973
    1950.000    -847.9591259    634.8731461    199.0736151    390.0435091
    1960.000    -854.3129531    635.8914400    199.0784179    392.0342693
    1970.000    -860.6769375    636.9045760    199.0831481    394.0250772
    1980.000    -867.0510276    637.9126059    199.0878072    396.0159321
    1990.000    -873.4351727    638.9155808    199.0923965    398.0068331
    2000.000    -879.8293226    639.9135512    199.0969176    399.9977798
