#      T [K]      F [kJ/mol]    S [J/K/mol]  C_v [J/K/mol]     E [kJ/mol]
0.0 130.1546725180919 0.0 0.0 130.1546725180919
1.0 130.15467068487058 6.984148599248721e-07 0.025686892045162835 130.15467878963847
1.999 130.15463845876963 6.072594008255992e-06 0.22382589074968062 130.15477932735453
2.999 130.15448427520892 2.3510051017652373e-05 0.9646176127405646 130.15530247082532
3.998 130.15399220001507 6.710008413574643e-05 2.889744437751573 130.15710529925605
4.998 130.15276423119315 0.00015275620846577054 6.4351371578701695 130.16162399681536
5.997 130.15024278000877 0.00029136389237831544 11.623799272105058 130.17051946201047
6.997 130.14578380687 0.00048703120397508484 18.21810779560783 130.18532918860876
7.996 130.13872638725186 0.0007389660621738391 25.885223972657943 130.2072949428346
8.996 130.12843989302354 0.0010429585750839287 34.28891159181983 130.23731876605808
9.995 130.11435129779755 0.0013935438641877428 43.13283892343427 130.27598449102385
10.995 130.09595781650822 0.0017842057888470752 52.17741391835776 130.3236075282826
11.994 130.07282902808896 0.0022090377820169955 61.241245807346196 130.3802931433317
12.994 130.04460475279492 0.00266190841642216 70.19436252828734 130.44599154973977
13.993 130.01098829822982 0.0031380123595790036 78.9482911066874 130.5205449939888
14.993 129.97173951240205 0.003632374270949624 87.44614541108614 130.603723744503
15.992 129.9266674508393 0.004141546027515397 95.65419648524447 130.69525330051246
16.992 129.87562294721812 0.004661693908772685 103.55531048324023 130.79483426803162
17.991 129.81849243830257 0.005190535864186928 111.14409057053263 130.90215635023236
18.991 129.75519246428044 0.005725146497285525 118.42336994183108 131.01690828543323
19.99 129.68566455504038 0.006264141924244632 125.40169783523471 131.13878460107279
20.99 129.6098710813029 0.006805268026102274 132.09152712072736 131.26749034149069
21.989 129.5277918776336 0.007347806987978749 138.50788995594294 131.40274463788512
22.989 129.43942096194186 0.00788998704062505 144.66741476724997 131.54428225207812
23.988 129.3447641233476 0.00843157703020082 150.58758649538365 131.6918553132514
24.988 129.24383651004803 0.008971147447071505 156.28618515304294 131.84523331794657
25.987 129.1366610855521 0.009508819959771233 161.78085947587658 132.0042037089769
26.987 129.02326679545953 0.010043405008531958 167.08880557681735 132.16857129651558
27.986 128.90368750612183 0.010575278672055896 172.22652917739444 132.33815777566878
28.986 128.77796046087724 0.011103416954343255 177.20967515293543 132.51280095459325
29.985 128.6461260870799 0.011628378101071275 182.05291183681902 132.69235359667215
30.985 128.50822635584933 0.012149248413866864 186.7698596075554 132.87668293808846
31.984 128.36430487855557 0.012666715179822225 191.37305541097442 133.06566895108904
32.984 128.21440594196613 0.013179937468089256 195.87394587585052 133.25920395804326
33.983 128.05857450824573 0.013689690646843482 200.28290313632507 133.45719070173632
34.983 127.89685525010319 0.014195178902302558 204.6092580731279 133.65954224888395
35.982 127.72929284024725 0.01469723839695537 208.86134670827872 133.86618025339652
36.982 127.55593166193071 0.015195098608393876 213.04656614479165 134.0770341844962
37.981 127.37681532652368 0.015689634608513244 217.17143681705676 134.29204055483444
38.981 127.19198667351361 0.01618008801593297 221.24166880699408 134.51114205212403
39.98 127.00148786699067 0.016667359349274487 225.26222978984185 134.73428647780025
40.98 126.8053602991623 0.01715069306858475 229.23741330420935 134.961426457565
41.979 126.60364430089736 0.017631004061444005 233.1709056668719 135.1925185730189
42.979 126.39637933469668 0.018107534376942184 237.06585074243466 135.4275226862637
43.978 126.18360380172243 0.018581206357726456 240.9249116699031 135.66640165044657
44.978 125.96535542773947 0.01905125624280497 244.75032898077689 135.90912082733328
45.977 125.74167078068872 0.019518608699009062 248.5439747927169 136.15564741191096
46.977 125.512585560143 0.01998249276916917 252.30740274620797 136.40595052887323
47.976 125.27813479027792 0.020443832601762385 256.04189369253095 136.66000065370852
48.976 125.03835243393036 0.020901848890602835 259.7484970831574 136.91776941972918
49.975 124.79327158556926 0.02135746386046568 263.4280680855111 137.17922932861552
50.975 124.54292476075153 0.021809889781626124 267.0813007244156 137.44435375041593
51.974 124.28734360666611 0.022260045659499732 270.70875705754395 137.71311673057605
52.974 124.0265590951046 0.022707135959198044 274.3108928089067 137.9854926039975
53.973 123.76060132949064 0.023152075988604096 277.88807950195155 138.26145638097933
54.973 123.48950012379186 0.023594063537391772 281.44062352462583 138.54098316830576
55.972 123.21328423063723 0.024034009474382376 284.9687823924659 138.82404845870252
56.972 122.93198220968505 0.024471105741909707 288.4727783011707 139.11062813083652
57.971 122.64562165574027 0.02490625954999781 291.95280945921456 139.40069806337473
58.971 122.35422987415197 0.02533865750038171 295.4090593169007 139.69423442444017
59.97 122.0578336878424 0.025769202825160126 298.8417039828619 139.99121338215576
60.97 121.75645924433661 0.026197078038703324 302.25091802755514 140.29161158707112
61.969 121.45013230521825 0.026623182878651085 305.6368788899273 140.59540578622125
62.969 121.13887814964437 0.027046696151811087 308.99977016162745 140.9025725336704
63.968 120.82272167083063 0.027468514249600756 312.3397837653961 141.2130891553655
64.968 120.50168727956604 0.027887813605554312 315.6571213518952 141.52693278428293
65.967 120.17579900069835 0.028305486963474492 318.95199493160703 141.8440808428549
66.967 119.84508047313389 0.028720708798384283 322.2246270161802 142.1645109464844
67.966 119.50955504632306 0.029134368791364176 325.475250194392 142.48820100003033
68.966 119.16924549080422 0.029545639906791404 328.7041063921611 142.81512919780766
69.965 118.82417457711576 0.02995540890453424 331.91144588312693 143.14527392710198
70.965 118.4743643039134 0.03036284785061145 335.0975260747377 143.47861367168423
71.964 118.11983676633818 0.030768840457731084 338.2626101031062 143.815127397752
72.964 117.76061338413388 0.03117255808717005 341.4069654777528 144.15479426447357
73.963 117.39671548055885 0.031574881854266865 344.53086253511503 144.4975937204732
74.963 117.02816418590088 0.0319749830056795 347.6345730167747 144.84350531086045
75.962 116.6549799550503 0.0323737394531866 350.7183686227412 145.1925091596569
76.962 116.27718333938292 0.032770322652085175 353.7825196229364 145.5445853908842
77.961 115.89479431136246 0.03316560804691495 356.8272935684529 145.89971451450518
78.961 115.50783293993803 0.03355876702858303 359.8529540360701 146.2578773299388
79.96 115.11631871514666 0.03395067241106656 362.8597595889466 146.61905492605993
80.96 114.72027093405484 0.03434049610120001 365.84796267911076 146.9832283917435
81.959 114.31970879724362 0.03472910812022183 368.81780882432935 147.35037949126172
82.959 113.9146511193528 0.035115681109187634 371.7695357932898 147.72048979591617
83.958 113.5051164255661 0.03550108214813202 374.7033729071856 148.0935414559204
84.958 113.09112324106732 0.03588448480877085 377.619540515905 148.46951662148794
85.957 112.67268970509889 0.03626675338417491 380.51824952410686 148.8483977322884
86.957 112.24983366744728 0.036647062448202934 383.3997010170695 149.23016742096195
87.956 111.82257288141355 0.03702627336297399 386.2640860112572 149.61480870609014
88.956 111.3909250038135 0.03740356177014889 389.1115852797162 150.0023044132839
89.955 110.95490720903628 0.03777978624973116 391.94236923567223 150.3926377540954
90.955 110.51453667147099 0.03815412356223205 394.7565979741031 150.78579232601817
91.954 110.06983027605071 0.038527429550831084 397.5544212384806 151.1817514370898
92.954 109.62080481122327 0.0388988819576486 400.3359786286319 151.58049887777443
93.953 109.16747677598048 0.03926933393726613 403.1013997088281 151.98201834205096
94.953 108.70986257282874 0.03963796452268213 405.8508042489032 152.38629390983962
95.952 108.24797831481857 0.04000562404330881 408.5843024986316 152.7933094680899
96.952 107.78184011500042 0.040371492762184304 411.3019954870485 153.20304928969267
97.951 107.31146379696875 0.04073641831854844 414.00397536334305 153.61549764753883
98.951 106.83686499134735 0.041099582227681265 416.6903257377514 154.03063871803386
99.95 106.35805932876006 0.04146182931361462 419.36112210559406 154.44845706352467
100.95 105.87506215037467 0.041822342612635746 422.0164322131125 154.86893714987278
101.949 105.38788870087366 0.04218196409539642 424.6563164898211 155.29206344293968
102.949 104.8965539354835 0.0425398782404255 427.28082848085893 155.7178206980429
103.948 104.401072905916 0.042896924294404566 429.89001527102795 156.14619347752935
104.948 103.90146037442695 0.04325228817965441 432.4839179088301 156.57716644023117
105.947 103.39773100678691 0.04360680638220465 435.0625718637628 157.01072443795127
106.947 102.88989927579561 0.04395966650201941 437.6260074420424 157.4468522260071
107.946 102.37797965425295 0.04431170207207295 440.17425021064145 157.88553446323093
108.946 101.86198632550268 0.04466210228283637 442.7073214296408 158.3267561943962
109.945 101.34193347288867 0.045011698070953725 445.22523845132395 158.7705020783352
110.945 100.8178351832694 0.04535968027598923 447.72801511927116 159.21675715982138
111.944 100.28970535053267 0.04570687697209348 450.21566218408265 159.66550609768697
112.944 99.75755757911034 0.04605248070742943 452.6881876359569 160.11673393670543
113.943 99.22140585937557 0.04639731688618811 455.14559709547075 160.5704255286797
114.943 98.68126350630415 0.04674057981357859 457.5878941627864 161.02656572541255
115.942 98.1371442208133 0.047083092114658595 460.0150807419159 161.48513947519226
116.942 97.58906112490816 0.0474240498268173 462.4271573649848 161.9461316298216
117.941 97.0370277265352 0.047764273049490186 464.82412348323857 162.4095270411035
118.941 96.4810570512143 0.048102959521670055 467.20597776636316 162.87531075381142
119.94 95.92116231743594 0.04844092663766243 469.57271839349124 163.34346752326294
120.94 95.35735626126397 0.04877737395058806 471.92434325274945 163.81398239423154
121.939 94.78965210118888 0.04911311639078495 474.2608502322642 164.28684002554942
122.939 94.21806238030386 0.0494473552199711 476.58223742802346 164.76202555847547
123.938 93.64260002764341 0.04978090272922905 478.8885033517385 165.23952374832714
124.938 93.06327748981536 0.05011296219346111 481.17964713870526 165.71931944690738
125.937 92.48010750288357 0.050444343227464175 483.4556687057791 166.20139760250427
126.937 91.89310241697054 0.05077425100927922 485.7165689259785 166.68574306692076
127.936 91.30227477516945 0.05110349264142617 487.962349803089 167.172340788445
128.936 90.70763673463215 0.05143127516252745 490.193014579751 167.66117561887987
129.935 90.10920074196646 0.051758403253306474 492.40856787049137 168.15223241002818
130.935 89.5069787613536 0.05208408583395417 494.6090158196978 168.64549611017816
131.934 88.90098304643074 0.052409124995937056 496.7943661182484 169.14095157113266
132.934 88.29122565786437 0.052732731688690256 498.9646281947436 169.63858383766518
133.933 87.67771855983571 0.053055705566036504 501.1198132071924 170.13837766509326
134.933 87.06047352355523 0.0533772594323055 503.2599341843576 170.64031819467576
135.932 86.43950251320418 0.053698190649796494 505.3850060340707 171.14439008524485
136.932 85.81481729999304 0.05401771395384186 507.4950456346909 171.65057857454474
137.931 85.18642965513232 0.05433662418913182 509.5900718517338 172.15886861086358
138.931 84.55435106037655 0.054654138097422436 511.67010558775837 172.66924504600428
139.93 83.91859328693626 0.05497104820917803 513.7351697906815 173.18169292474036
140.93 83.27916781656596 0.055286573279257636 515.7852895119792 173.69619748481594
141.929 82.63608603453486 0.055601503421930605 517.8204918734283 174.21274367451926
142.929 81.98935951908278 0.055915059296638855 519.8408061086794 174.73131653862384
143.928 81.33899955899362 0.05622802879752133 521.8462635299989 175.25190131487383
144.928 80.68501744305122 0.05653963461169659 523.8368975781552 175.77448314452815
145.927 80.02742446003944 0.056850662139339016 525.8127437475894 176.2990472653309
146.927 79.36623180225679 0.05716033627246016 527.773839611358 176.825578818541
147.926 78.70145066200182 0.05746944005044958 529.7202248211332 177.35406313838797
148.926 78.03309203860238 0.057777200342740434 531.6519410157439 177.88448555910125
149.925 77.361167124357 0.05808439795816018 533.5690318627477 178.4168313184251
150.925 76.6856868221082 0.058390261802039566 535.4715429919154 178.951086040045
151.924 76.00666222766918 0.05869557030082725 537.3595219869168 179.4872350581905
152.924 75.32410405091181 0.058999554453310954 539.2330183021751 180.0252638035764
153.923 74.63802319467862 0.05930299053805706 541.0920833044407 180.56515789988825
154.923 73.94843056181215 0.05960511148188048 542.9367701397588 181.10690297081157
155.922 73.25533676569891 0.059906691373419675 544.7671337750413 181.6504846400318
156.922 72.55875270918143 0.06020696512389297 546.5832308816657 182.1958886277199
157.921 71.85868890916095 0.060506704591701224 548.3851198437885 182.74310065404666
158.921 71.15515607550928 0.06080514683064541 550.1728607001442 183.29210663215358
159.92 70.44816472512767 0.06110306142827633 551.9465150609008 183.84289247518217
160.92 69.73772547140263 0.06139968752400819 553.7061460993453 184.3954439997886
161.919 69.02384873475003 0.06169579244897372 555.4518184936824 184.94974731208507
162.919 68.30654503207107 0.06199061732269926 557.1835983688334 185.50578851818378
163.918 67.5858246872963 0.0622849274894557 558.9015532299201 186.06355362771149
164.918 66.86169812084158 0.06257796604470146 560.6057519456365 186.62302903623646
165.917 66.13417565663744 0.0628704960499893 562.296264690047 187.1842009463561
166.917 65.4032675221291 0.06316176272715103 563.9731628511279 187.74705565715334
167.916 64.66898394476176 0.06345252701831662 565.6365190390808 188.31157966068164
168.916 63.93133524846595 0.06374203616476605 567.2864069865606 188.87775954547985
169.915 63.19033146771622 0.06403104890141799 568.9229015320451 189.44558170711613
170.915 62.445982733472434 0.06431881458349556 570.5460785366914 190.01503292709998
171.914 61.698299176694476 0.06460608979928523 572.1560148677062 190.58609979397022
172.914 60.94729073537154 0.06489212591381814 573.7527883318309 191.15876928220703
173.913 60.192967443978176 0.0651776774283118 575.3364776088249 191.73302826980523
174.913 59.43533933698893 0.06546199771255624 576.907162251467 192.30886353827435
175.912 58.67441615942235 0.06574583914308815 578.4649225774657 192.88626235155053
176.912 57.91020794575296 0.0660284571839867 580.0098396777753 193.46521158762857
177.911 57.14272453748464 0.06631060209692917 581.5419953334497 194.04569870341535
178.911 56.3719755831506 0.06659153133895362 583.0614719740717 194.62771076987633
179.91 55.59797092425474 0.066871993068198 584.5683526611224 195.2112353404037
180.91 54.82072030581558 0.06715124677575993 586.0627210131527 195.7962597754189
181.909 54.04023337636633 0.06743003857232108 587.5446611642097 196.38277153182875
182.909 53.25651978444022 0.0677076299299945 589.0142577555229 196.97075835599617
183.908 52.469589178570466 0.06798476496649813 590.4715958357303 197.56020799428387
184.908 51.679451014319596 0.06826070703836216 591.9167608941368 198.15110800008406
185.907 50.88611494022083 0.0685361982793138 593.3498387609397 198.74344650570086
186.907 50.08959041183672 0.06881050406035019 594.7709155822865 199.33721135398247
187.906 49.2898868847298 0.06908436440520911 596.1800778119592 199.93239058074764
188.906 48.48701371797731 0.06935704678092341 597.5774121448597 200.52897241478587
189.905 47.68098036714178 0.06962928906775946 598.9630054920657 201.12694489191605
190.905 46.871796094815096 0.06990036077610849 600.3369449475731 201.72629653038356
191.904 46.059470356559814 0.07017099774192163 601.6993177467239 202.3270156554633
192.904 45.24401231848248 0.07044047146692137 603.0502112495764 202.92909068891532
193.903 44.42543114668965 0.07070951579548752 604.3897128993343 203.53251014898518
194.903 43.60373620025853 0.0709774041273165 605.7179101890877 204.13726293985965
195.902 42.77893654881035 0.07124486836722603 607.0348906285554 204.7433375797842
196.902 41.951041261966324 0.07151118384942545 608.3407417524002 205.3507229729456
197.901 41.12005950583301 0.07177708050448951 609.6355510204542 205.95940802353078
198.901 40.286000350031614 0.07204183559449572 610.9194058759208 206.56938182869706
199.9 39.44887276769804 0.07230617704300538 612.1923936539152 207.18063329263137
200.9 38.608685731968166 0.07256938411663023 613.4546015731505 207.7931518019471
201.899 37.76544821597788 0.07283218278207758 614.7061167525658 208.40692655028707
202.899 36.919169096377736 0.07309385413690486 615.9470261115533 209.02194682777943
203.898 36.0698572498183 0.07335512224170697 617.1774164281596 209.63820211752298
204.898 35.21752164943545 0.07361527014208667 618.3973742642548 210.2556819991018
205.897 34.36217088242374 0.07387501991843942 619.6069859655333 210.8743760521001
206.897 33.50381382543374 0.07413365651651263 620.806337619941 211.4942739525873
207.896 32.64245916214533 0.07439190008652681 621.9955150826188 212.1153655696035
208.896 31.77811567272373 0.07464903750718874 623.1746039177017 212.73764067570357
209.895 30.910791944363513 0.07490578700657467 624.3436893983182 213.36108933289822
210.895 30.04049666074456 0.07516143730914775 625.5028564733328 213.98570150671296
211.894 29.1672383125761 0.07541670469075341 626.6521897839751 214.61146725915856
212.894 28.291025680023353 0.07567087983356253 627.7917736056381 215.2383769417018
213.893 27.41186696433956 0.07592467706989546 628.921691872822 215.8664209058095
214.893 26.52977094568993 0.07617738899178693 630.0420281541905 216.4955893099778
215.892 25.64474592181304 0.07642972799726111 631.1528656026842 217.12587279512937
216.892 24.756800383418103 0.07668098850367461 632.2542870137221 217.75726180921643
217.891 23.86594262824369 0.07693188106130266 633.3463747337416 218.38974699316176
218.891 22.972181050513694 0.07718170202027685 634.4292107184011 219.0233191808588
219.89 22.07552404445201 0.07743115990019658 635.5028764743774 219.65796901323034
220.89 21.17597981131187 0.07767955293875195 636.5674530759957 220.29368742065512
221.889 20.2735565523465 0.07792758786236215 637.6230211319707 220.93046542999727
222.889 19.3682626617798 0.07817456471217585 638.6696607937225 221.5682939716356
223.888 18.460106051408996 0.07842118827935413 639.7074517636894 222.20716416891952
224.888 17.549095211943325 0.07866676051431287 640.736473237128 222.84706724168382
225.887 16.63523795869468 0.07891198431937656 641.7568039436849 223.4879945062486
226.887 15.718542492916301 0.07915616339850323 642.7685220975098 224.12993727893402
227.886 14.799016822890744 0.07939999892147705 643.7717054388282 224.77288706903076
228.886 13.876669053385916 0.07964279641189932 644.766431192369 225.416835192859
229.885 12.95150719268438 0.07988525505868542 645.7527760507353 226.0617734491655
230.885 12.023538959612702 0.08012668227163193 646.7308162242915 226.70769334724102
231.884 11.092772555424117 0.08036777544970006 647.7006273663329 227.35458668583232
232.884 10.159215602459863 0.08060784373599604 648.6622846396017 228.00244526368618
233.883 9.222876205487836 0.08084758271195529 649.6158626414564 228.6512609760347
234.883 8.283761986849274 0.08108630335491084 650.5614354454444 229.30102571811003
235.882 7.341880761856081 0.08132469933066401 651.4990766013022 229.95173167460018
236.882 6.397240345820157 0.08156208347871195 652.4288591016971 230.60337083722263
237.881 5.4498484575680735 0.08179914762942085 653.3508553822273 231.2559354871508
238.881 4.499712815926399 0.0820352064405316 654.2651373629944 231.90941771258747
