#      T [K]      F [kJ/mol]    S [J/K/mol]  C_v [J/K/mol]     E [kJ/mol]
       0.000      14.7485962      0.0000000      0.0000000     14.7485962
      10.000      14.7482273      0.1238507      0.3198838     14.7494658
      20.000      14.7439653      0.9070530      2.7610170     14.7621063
      30.000      14.7256037      3.0021914      8.3669168     14.8156694
      40.000      14.6796785      6.3590946     15.3866082     14.9340423
      50.000      14.5956407     10.5547938     22.4372559     15.1233804
      60.000      14.4669483     15.2456418     29.1659837     15.3816868
      70.000      14.2897742     20.2251531     35.5441298     15.7055349
      80.000      14.0619063     25.3675846     41.5444507     16.0913130
      90.000      13.7821685     30.5869326     47.1156878     16.5349924
     100.000      13.4501261     35.8192509     52.2151561     17.0320511
     110.000      13.0659034     41.0159979     56.8257901     17.5776631
     120.000      12.6300464     46.1409775     60.9560785     18.1669637
     130.000      12.1434107     51.1681638     64.6328972     18.7952720
     140.000      11.6070692     56.0797503     67.8936228     19.4582343
     150.000      11.0222394     60.8643803     70.7799529     20.1518965
     160.000      10.3902267     65.5156165     73.3338005     20.8727253
     170.000       9.7123813     70.0306806     75.5948889     21.6175970
     180.000       8.9900676     74.4094508     77.5995362     22.3837687
     190.000       8.2246409     78.6536878     79.3801973     23.1688416
     200.000       7.4174322     82.7664477     80.9654506     23.9707217
     210.000       6.5697372     86.7516451     82.3802247     24.7875827
     220.000       5.6828097     90.6137303     83.6461378     25.6178303
     230.000       4.7578571     94.3574550     84.7818743     26.4600718
     240.000       3.7960388     97.9877044     85.8035567     27.3130879
     250.000       2.7984650    101.5093774     86.7250917     28.1758093
     260.000       1.7661971    104.9273038     87.5584810     29.0472961
     270.000       0.7002490    108.2461882     88.3140939     29.9267198
     280.000      -0.3984117    111.4705730     89.0009040     30.8133487
     290.000      -1.5288620    114.6048159     89.6266917     31.7065346
     300.000      -2.6902214    117.6530775     90.1982181     32.6057018
     310.000      -3.8816502    120.6193161     90.7213714     33.5103378
     320.000      -5.1023469    123.5072878     91.2012922     34.4199852
     330.000      -6.3515469    126.3205501     91.6424796     35.3342346
     340.000      -7.6285201    129.0624676     92.0488807     36.2527189
     350.000      -8.9325691    131.7362199     92.4239672     37.1751079
     360.000     -10.2630273    134.3448094     92.7708000     38.1011041
     370.000     -11.6192575    136.8910710     93.0920845     39.0304388
     380.000     -13.0006499    139.3776804     93.3902174     39.9628686
     390.000     -14.4066207    141.8071635     93.6673273     40.8981731
     400.000     -15.8366107    144.1819054     93.9253086     41.8361514
     410.000     -17.2900839    146.5041585     94.1658512     42.7766211
     420.000     -18.7665260    148.7760510     94.3904659     43.7194154
     430.000     -20.2654437    150.9995945     94.6005063     44.6643819
     440.000     -21.7863631    153.1766912     94.7971876     45.6113810
     450.000     -23.3288288    155.3091411     94.9816027     46.5602847
     460.000     -24.8924028    157.3986484     95.1547369     47.5109755
     470.000     -26.4766640    159.4468273     95.3174798     48.4633449
     480.000     -28.0812067    161.4552079     95.4706363     49.4172931
     490.000     -29.7056403    163.4252416     95.6149357     50.3727281
     500.000     -31.3495883    165.3583056     95.7510401     51.3295645
     510.000     -33.0126876    167.2557081     95.8795519     52.2877236
     520.000     -34.6945877    169.1186920     96.0010193     53.2471321
     530.000     -36.3949506    170.9484392     96.1159428     54.2077221
     540.000     -38.1134495    172.7460743     96.2247796     55.1694306
     550.000     -39.8497686    174.5126682     96.3279479     56.1321988
     560.000     -41.6036028    176.2492407     96.4258311     57.0959720
     570.000     -43.3746566    177.9567643     96.5187811     58.0606990
     580.000     -45.1626444    179.6361666     96.6071210     59.0263322
     590.000     -46.9672892    181.2883326     96.6911482     59.9928271
     600.000     -48.7883230    182.9141080     96.7711368     60.9601418
     610.000     -50.6254861    184.5143004     96.8473396     61.9282372
     620.000     -52.4785263    186.0896823     96.9199899     62.8970767
     630.000     -54.3471995    187.6409926     96.9893037     63.8666259
     640.000     -56.2312683    189.1689385     97.0554808     64.8368523
     650.000     -58.1305026    190.6741974     97.1187063     65.8077256
     660.000     -60.0446788    192.1574182     97.1791521     66.7792172
     670.000     -61.9735796    193.6192232     97.2369778     67.7513000
     680.000     -63.9169939    195.0602094     97.2923317     68.7239485
     690.000     -65.8747163    196.4809495     97.3453518     69.6971388
     700.000     -67.8465472    197.8819934     97.3961669     70.6708482
     710.000     -69.8322923    199.2638697     97.4448968     71.6450552
     720.000     -71.8317624    200.6270861     97.4916535     72.6197396
     730.000     -73.8447734    201.9721308     97.5365414     73.5948820
     740.000     -75.8711460    203.2994737     97.5796585     74.5704645
     750.000     -77.9107054    204.6095667     97.6210961     75.5464696
     760.000     -79.9632813    205.9028453     97.6609399     76.5228811
     770.000     -82.0287077    207.1797286     97.6992703     77.4996834
     780.000     -84.1068226    208.4406209     97.7361626     78.4768617
     790.000     -86.1974681    209.6859116     97.7716875     79.4544021
     800.000     -88.3004901    210.9159765     97.8059115     80.4322911
     810.000     -90.4157381    212.1311781     97.8388971     81.4105162
     820.000     -92.5430653    213.3318663     97.8707030     82.3890651
     830.000     -94.6823282    214.5183791     97.9013846     83.3679265
     840.000     -96.8333867    215.6910428     97.9309941     84.3470892
     850.000     -98.9961039    216.8501728     97.9595806     85.3265429
     860.000    -101.1703460    217.9960740     97.9871907     86.3062776
     870.000    -103.3559823    219.1290413     98.0138680     87.2862837
     880.000    -105.5528847    220.2493599     98.0396539     88.2665520
     890.000    -107.7609282    221.3573057     98.0645877     89.2470739
     900.000    -109.9799905    222.4531461     98.0887063     90.2278410
     910.000    -112.2099517    223.5371396     98.1120448     91.2088454
     920.000    -114.4506946    224.6095370     98.1346363     92.1900794
     930.000    -116.7021046    225.6705810     98.1565122     93.1715358
     940.000    -118.9640692    226.7205070     98.1777024     94.1532074
     950.000    -121.2364784    227.7595432     98.1982352     95.1350876
     960.000    -123.5192245    228.7879109     98.2181373     96.1171700
     970.000    -125.8122018    229.8058249     98.2374343     97.0994483
     980.000    -128.1153068    230.8134934     98.2561505     98.0819167
     990.000    -130.4284382    231.8111188     98.2743087     99.0645695
    1000.000    -132.7514964    232.7988975     98.2919309    100.0474011
    1010.000    -135.0843839    233.7770201     98.3090379    101.0304064
    1020.000    -137.4270052    234.7456720     98.3256496    102.0135802
    1030.000    -139.7792664    235.7050332     98.3417849    102.9969178
    1040.000    -142.1410755    236.6552787     98.3574617    103.9804144
    1050.000    -144.5123422    237.5965788     98.3726972    104.9640656
    1060.000    -146.8929778    238.5290988     98.3875079    105.9478669
    1070.000    -149.2828954    239.4529998     98.4019092    106.9318144
    1080.000    -151.6820096    240.3684383     98.4159161    107.9159038
    1090.000    -154.0902365    241.2755669     98.4295429    108.9001314
    1100.000    -156.5074937    242.1745338     98.4428031    109.8844934
    1110.000    -158.9337004    243.0654835     98.4557098    110.8689863
    1120.000    -161.3687771    243.9485568     98.4682753    111.8536065
    1130.000    -163.8126458    244.8238907     98.4805117    112.8383507
    1140.000    -166.2652296    245.6916186     98.4924301    113.8232157
    1150.000    -168.7264532    246.5518709     98.5040416    114.8081983
    1160.000    -171.1962425    247.4047742     98.5153566    115.7932955
    1170.000    -173.6745246    248.2504522     98.5263850    116.7785045
    1180.000    -176.1612279    249.0890256     98.5371365    117.7638223
    1190.000    -178.6562818    249.9206119     98.5476202    118.7492463
    1200.000    -181.1596172    250.7453259     98.5578449    119.7347738
    1210.000    -183.6711658    251.5632795     98.5678190    120.7204024
    1220.000    -186.1908606    252.3745820     98.5775507    121.7061294
    1230.000    -188.7186356    253.1793400     98.5870478    122.6919526
    1240.000    -191.2544260    253.9776577     98.5963177    123.6778696
    1250.000    -193.7981677    254.7696367     98.6053675    124.6638782
    1260.000    -196.3497979    255.5553763     98.6142043    125.6499762
    1270.000    -198.9092547    256.3349735     98.6228345    126.6361616
    1280.000    -201.4764772    257.1085230     98.6312647    127.6224323
    1290.000    -204.0514053    257.8761175     98.6395009    128.6087863
    1300.000    -206.6339800    258.6378474     98.6475489    129.5952217
    1310.000    -209.2241430    259.3938013     98.6554146    130.5817366
    1320.000    -211.8218371    260.1440655     98.6631033    131.5683294
    1330.000    -214.4270056    260.8887246     98.6706203    132.5549981
    1340.000    -217.0395931    261.6278615     98.6779707    133.5417412
    1350.000    -219.6595447    262.3615568     98.6851594    134.5285570
    1360.000    -222.2868064    263.0898899     98.6921910    135.5154439
    1370.000    -224.9213249    263.8129381     98.6990701    136.5024003
    1380.000    -227.5630478    264.5307772     98.7058011    137.4894248
    1390.000    -230.2119234    265.2434814     98.7123881    138.4765159
    1400.000    -232.8679006    265.9511233     98.7188353    139.4636721
    1410.000    -235.5309292    266.6537740     98.7251466    140.4508921
    1420.000    -238.2009596    267.3515030     98.7313257    141.4381746
    1430.000    -240.8779431    268.0443785     98.7373764    142.4255182
    1440.000    -243.5618313    268.7324673     98.7433021    143.4129217
    1450.000    -246.2525767    269.4158348     98.7491063    144.4003838
    1460.000    -248.9501324    270.0945451     98.7547923    145.3879034
    1470.000    -251.6544523    270.7686609     98.7603632    146.3754793
    1480.000    -254.3654905    271.4382438     98.7658221    147.3631103
    1490.000    -257.0832022    272.1033541     98.7711721    148.3507954
    1500.000    -259.8075429    272.7640509     98.7764159    149.3385334
    1510.000    -262.5384687    273.4203921     98.7815564    150.3263233
    1520.000    -265.2759364    274.0724346     98.7865963    151.3141642
    1530.000    -268.0199033    274.7202341     98.7915381    152.3020549
    1540.000    -270.7703271    275.3638453     98.7963844    153.2899946
    1550.000    -273.5271664    276.0033218     98.8011377    154.2779823
    1560.000    -276.2903800    276.6387161     98.8058003    155.2660171
    1570.000    -279.0599273    277.2700798     98.8103744    156.2540980
    1580.000    -281.8357683    277.8974637     98.8148624    157.2422243
    1590.000    -284.6178635    278.5209173     98.8192663    158.2303950
    1600.000    -287.4061737    279.1404894     98.8235883    159.2186093
    1610.000    -290.2006605    279.7562279     98.8278303    160.2068665
    1620.000    -293.0012856    280.3681798     98.8319944    161.1951657
    1630.000    -295.8080116    280.9763912     98.8360823    162.1835061
    1640.000    -298.6208011    281.5809075     98.8400960    163.1718871
    1650.000    -301.4396176    282.1817730     98.8440373    164.1603078
    1660.000    -304.2644246    282.7790314     98.8479078    165.1487676
    1670.000    -307.0951863    283.3727258     98.8517093    166.1372657
    1680.000    -309.9318674    283.9628982     98.8554434    167.1258016
    1690.000    -312.7744327    284.5495900     98.8591116    168.1143744
    1700.000    -315.6228477    285.1328419     98.8627156    169.1029836
    1710.000    -318.4770782    285.7126940     98.8662567    170.0916285
    1720.000    -321.3370904    286.2891854     98.8697365    171.0803085
    1730.000    -324.2028508    286.8623548     98.8731563    172.0690230
    1740.000    -327.0743265    287.4322402     98.8765176    173.0577714
    1750.000    -329.9514848    287.9988788     98.8798216    174.0465532
    1760.000    -332.8342934    288.5623074     98.8830697    175.0353677
    1770.000    -335.7227204    289.1225620     98.8862631    176.0242144
    1780.000    -338.6167342    289.6796781     98.8894029    177.0130928
    1790.000    -341.5163036    290.2336904     98.8924905    178.0020023
    1800.000    -344.4213978    290.7846334     98.8955270    178.9909424
    1810.000    -347.3319861    291.3325408     98.8985134    179.9799127
    1820.000    -350.2480386    291.8774456     98.9014509    180.9689125
    1830.000    -353.1695252    292.4193807     98.9043405    181.9579415
    1840.000    -356.0964164    292.9583780     98.9071833    182.9469992
    1850.000    -359.0286830    293.4944692     98.9099803    183.9360850
    1860.000    -361.9662962    294.0276854     98.9127325    184.9251986
    1870.000    -364.9092273    294.5580571     98.9154407    185.9143395
    1880.000    -367.8574479    295.0856145     98.9181060    186.9035073
    1890.000    -370.8109303    295.6103872     98.9207292    187.8927015
    1900.000    -373.7696465    296.1324043     98.9233112    188.8819217
    1910.000    -376.7335693    296.6516947     98.9258529    189.8711676
    1920.000    -379.7026714    297.1682865     98.9283551    190.8604387
    1930.000    -382.6769261    297.6822076     98.9308187    191.8497346
    1940.000    -385.6563067    298.1934854     98.9332443    192.8390549
    1950.000    -388.6407871    298.7021469     98.9356328    193.8283993
    1960.000    -391.6303410    299.2082186     98.9379850    194.8177674
    1970.000    -394.6249429    299.7117268     98.9403016    195.8071589
    1980.000    -397.6245671    300.2126972     98.9425832    196.7965734
    1990.000    -400.6291885    300.7111552     98.9448306    197.7860105
    2000.000    -403.6387819    301.2071259     98.9470445    198.7754699
