#      T [K]      F [kJ/mol]    S [J/K/mol]  C_v [J/K/mol]     E [kJ/mol]
       0.000      60.9938391      0.0000000      0.0000000     60.9938391
      10.000      60.9919924      1.0065084      4.4356844     61.0020575
      20.000      60.9350713     12.7763956     36.9826482     61.1905992
      30.000      60.6991579     35.7341950     79.5957376     61.7711837
      40.000      60.2009408     64.6166855    123.2033014     62.7856082
      50.000      59.3963994     96.6582697    165.0617514     64.2293129
      60.000      58.2628292    130.2023973    203.3984730     66.0749730
      70.000      56.7909663    164.1749756    237.5372023     68.2832146
      80.000      54.9802033    197.8941077    267.4898832     70.8117319
      90.000      52.8353407    230.9419315    293.5762807     73.6201145
     100.000      50.3644310    263.0735094    316.2201828     76.6717819
     110.000      47.5773764    294.1556479    335.8569429     79.9344977
     120.000      44.4850257    324.1269674    352.8945757     83.3802618
     130.000      41.0985946    352.9719702    367.6991315     86.9849507
     140.000      37.4292978    380.7041178    380.5911618     90.7278743
     150.000      33.4881186    407.3547127    391.8473015     94.5913255
     160.000      29.2856699    432.9655616    401.7041114     98.5601598
     170.000      24.8321152    457.5841292    410.3627423    102.6214172
     180.000      20.1371285    481.2603520    417.9936791    106.7639919
     190.000      15.2098814    504.0445635    424.7411958    110.9783485
     200.000      10.0590457    525.9861714    430.7273534    115.2562800
     210.000       4.6928075    547.1328398    436.0554911    119.5907039
     220.000      -0.8811130    567.5300134    440.8132196    123.9754899
     230.000      -6.6554380    587.2206703    445.0749568    128.4053162
     240.000     -12.6233064    606.2452264    448.9040592    132.8755480
     250.000     -18.7782486    624.6415401    452.3546046    137.3821364
     260.000     -25.1141612    642.4449785    455.4728770    141.9215332
     270.000     -31.6252821    659.6885242    458.2986042    146.4906194
     280.000     -38.3061680    676.4029024    460.8659867    151.0866447
     290.000     -45.1516719    692.6167197    463.2045540    155.7071768
     300.000     -52.1569228    708.3566049    465.3398785    160.3500587
     310.000     -59.3173070    723.6473494    467.2941718    165.0133713
     320.000     -66.6284498    738.5120414    469.0867823    169.6954034
     330.000     -74.0861995    752.9721943    470.7346128    174.3946246
     340.000     -81.6866123    767.0478673    472.2524716    179.1096626
     350.000     -89.4259378    780.7577775    473.6533672    183.8392843
     360.000     -97.3006070    794.1194040    474.9487584    188.5823784
     370.000    -105.3072195    807.1490843    476.1487647    193.3379416
     380.000    -113.4425332    819.8621026    477.2623459    198.1050658
     390.000    -121.7034538    832.2727716    478.2974546    202.8829271
     400.000    -130.0870256    844.3945065    479.2611660    207.6707770
     410.000    -138.5904229    856.2398937    480.1597898    212.4679335
     420.000    -147.2109418    867.8207536    480.9989652    217.2737747
     430.000    -155.9459933    879.1481974    481.7837435    222.0877316
     440.000    -164.7930960    890.2326803    482.5186587    226.9092834
     450.000    -173.7498699    901.0840491    483.2077891    231.7379522
     460.000    -182.8140309    911.7115864    483.8548101    236.5732988
     470.000    -191.9833848    922.1240509    484.4630403    241.4149191
     480.000    -201.2558227    932.3297146    485.0354820    246.2624404
     490.000    -210.6293159    942.3363968    485.5748561    251.1155185
     500.000    -220.1019120    952.1514951    486.0836328    255.9738355
     510.000    -229.6717306    961.7820143    486.5640583    260.8370967
     520.000    -239.3369592    971.2345927    487.0181787    265.7050290
     530.000    -249.0958503    980.5155267    487.4478608    270.5773788
     540.000    -258.9467176    989.6307926    487.8548102    275.4539105
     550.000    -268.8879329    998.5860680    488.2405878    280.3344045
     560.000    -278.9179236   1007.3867501    488.6066240    285.2186564
     570.000    -289.0351697   1016.0379742    488.9542313    290.1064756
     580.000    -299.2382012   1024.5446292    489.2846162    294.9976837
     590.000    -309.5255960   1032.9113731    489.5988886    299.8921142
     600.000    -319.8959772   1041.1426472    489.8980713    304.7896111
     610.000    -330.3480115   1049.2426884    490.1831077    309.6900285
     620.000    -340.8804070   1057.2155420    490.4548693    314.5932291
     630.000    -351.4919113   1065.0650723    490.7141619    319.4990843
     640.000    -362.1813097   1072.7949733    490.9617315    324.4074732
     650.000    -372.9474238   1080.4087783    491.1982696    329.3182822
     660.000    -383.7891096   1087.9098690    491.4244177    334.2314040
     670.000    -394.7052562   1095.3014837    491.6407717    339.1467379
     680.000    -405.6947847   1102.5867254    491.8478857    344.0641886
     690.000    -416.7566461   1109.7685690    492.0462752    348.9836665
     700.000    -427.8898209   1116.8498680    492.2364207    353.9050867
     710.000    -439.0933175   1123.8333611    492.4187702    358.8283689
     720.000    -450.3661709   1130.7216783    492.5937417    363.7534375
     730.000    -461.7074422   1137.5173461    492.7617258    368.6802205
     740.000    -473.1162171   1144.2227933    492.9230877    373.6086499
     750.000    -484.5916051   1150.8403552    493.0781693    378.5386613
     760.000    -496.1327387   1157.3722792    493.2272908    383.4701934
     770.000    -507.7387725   1163.8207282    493.3707520    388.4031882
     780.000    -519.4088820   1170.1877853    493.5088347    393.3375906
     790.000    -531.1422636   1176.4754575    493.6418032    398.2733479
     800.000    -542.9381330   1182.6856792    493.7699057    403.2104104
     810.000    -554.7957252   1188.8203158    493.8933758    408.1487306
     820.000    -566.7142934   1194.8811666    494.0124333    413.0882632
     830.000    -578.6931084   1200.8699682    494.1272851    418.0289652
     840.000    -590.7314582   1206.7883973    494.2381262    422.9707955
     850.000    -602.8286472   1212.6380731    494.3451404    427.9137150
     860.000    -614.9839957   1218.4205603    494.4485011    432.8576862
     870.000    -627.1968394   1224.1373711    494.5483723    437.8026734
     880.000    -639.4665291   1229.7899677    494.6449087    442.7486425
     890.000    -651.7924295   1235.3797645    494.7382565    447.6955609
     900.000    -664.1739196   1240.9081300    494.8285542    452.6433975
     910.000    -676.6103917   1246.3763890    494.9159328    457.5921223
     920.000    -689.1012513   1251.7858240    495.0005162    462.5417068
     930.000    -701.6459163   1257.1376774    495.0824222    467.4921237
     940.000    -714.2438169   1262.4331528    495.1617621    472.4433467
     950.000    -726.8943953   1267.6734168    495.2386416    477.3953507
     960.000    -739.5971050   1272.8596007    495.3131612    482.3481117
     970.000    -752.3514107   1277.9928011    495.3854162    487.3016064
     980.000    -765.1567879   1283.0740823    495.4554972    492.2558127
     990.000    -778.0127227   1288.1044769    495.5234902    497.2107094
    1000.000    -790.9187112   1293.0849871    495.5894771    502.1662759
