# Phonon free energy and specific heat from phonopy-FHI-aims
# Phonon zero point energy =            0.214234148 eV 
#     Temperature (K)          Free energy (eV/cell)     Internal energy (eV/cell)                 c_v (kB/cell)              -TS_vib(eV/cell)
               0.000                    0.214234148                   0.214234148                   0.000000000                  -0.000000000
               1.000                    0.214234148                   0.214234149                   0.000049510                  -0.000000001
               1.999                    0.214234143                   0.214234170                   0.000531016                  -0.000000027
               2.999                    0.214234113                   0.214234262                   0.001757698                  -0.000000149
               3.998                    0.214234033                   0.214234502                   0.004026640                  -0.000000470
               4.998                    0.214233865                   0.214234999                   0.007802946                  -0.000001134
               5.997                    0.214233561                   0.214235912                   0.013888934                  -0.000002352
               6.997                    0.214233055                   0.214237495                   0.023618171                  -0.000004440
               7.996                    0.214232256                   0.214240141                   0.038941390                  -0.000007885
               8.996                    0.214231033                   0.214244432                   0.062240894                  -0.000013399
               9.995                    0.214229211                   0.214251162                   0.095941758                  -0.000021951
              10.995                    0.214226557                   0.214261318                   0.142103360                  -0.000034761
              11.994                    0.214222786                   0.214276039                   0.202132721                  -0.000053253
              12.994                    0.214217561                   0.214296554                   0.276667302                  -0.000078993
              13.993                    0.214210500                   0.214324112                   0.365604442                  -0.000113612
              14.993                    0.214201188                   0.214359927                   0.468224912                  -0.000158739
              15.992                    0.214189186                   0.214405129                   0.583357848                  -0.000215943
              16.992                    0.214174044                   0.214460734                   0.709547738                  -0.000286690
              17.991                    0.214155307                   0.214527627                   0.845200206                  -0.000372321
              18.991                    0.214132527                   0.214606554                   0.988696513                  -0.000474027
              19.990                    0.214105266                   0.214698121                   1.138475547                  -0.000592855
              20.990                    0.214073104                   0.214802807                   1.293086984                  -0.000729703
              21.989                    0.214035640                   0.214920970                   1.451221315                  -0.000885330
              22.989                    0.213992497                   0.215052863                   1.611722732                  -0.001060366
              23.988                    0.213943321                   0.215198646                   1.773590147                  -0.001255325
              24.988                    0.213887781                   0.215358397                   1.935970644                  -0.001470616
              25.987                    0.213825574                   0.215532131                   2.098148540                  -0.001706557
              26.987                    0.213756418                   0.215719803                   2.259532327                  -0.001963385
              27.986                    0.213680056                   0.215921323                   2.419640972                  -0.002241267
              28.986                    0.213596253                   0.216136564                   2.578090518                  -0.002540311
              29.985                    0.213504794                   0.216365370                   2.734581503                  -0.002860576
              30.985                    0.213405486                   0.216607562                   2.888887441                  -0.003202076
              31.984                    0.213298153                   0.216862944                   3.040844469                  -0.003564791
              32.984                    0.213182637                   0.217131309                   3.190342118                  -0.003948673
              33.983                    0.213058795                   0.217412442                   3.337315152                  -0.004353647
              34.983                    0.212926500                   0.217706124                   3.481736365                  -0.004779624
              35.982                    0.212785637                   0.218012135                   3.623610252                  -0.005226498
              36.982                    0.212636107                   0.218330257                   3.762967434                  -0.005694150
              37.981                    0.212477817                   0.218660275                   3.899859769                  -0.006182458
              38.981                    0.212310689                   0.219001981                   4.034356061                  -0.006691291
              39.980                    0.212134652                   0.219355170                   4.166538306                  -0.007220518
              40.980                    0.211949644                   0.219719647                   4.296498415                  -0.007770003
              41.979                    0.211755611                   0.220095226                   4.424335359                  -0.008339616
              42.979                    0.211552505                   0.220481728                   4.550152713                  -0.008929223
              43.978                    0.211340285                   0.220878984                   4.674056531                  -0.009538698
              44.978                    0.211118917                   0.221286832                   4.796153545                  -0.010167916
              45.977                    0.210888369                   0.221705123                   4.916549647                  -0.010816755
              46.977                    0.210648615                   0.222133714                   5.035348617                  -0.011485099
              47.976                    0.210399634                   0.222572473                   5.152651090                  -0.012172838
              48.976                    0.210141408                   0.223021273                   5.268553721                  -0.012879865
              49.975                    0.209873921                   0.223479999                   5.383148530                  -0.013606079
              50.975                    0.209597161                   0.223948543                   5.496522415                  -0.014351382
              51.974                    0.209311119                   0.224426801                   5.608756799                  -0.015115682
              52.974                    0.209015787                   0.224914680                   5.719927406                  -0.015898894
              53.973                    0.208711159                   0.225412091                   5.830104135                  -0.016700932
              54.973                    0.208397233                   0.225918951                   5.939351034                  -0.017521718
              55.972                    0.208074005                   0.226435182                   6.047726341                  -0.018361177
              56.972                    0.207741476                   0.226960713                   6.155282602                  -0.019219236
              57.971                    0.207399647                   0.227495473                   6.262066823                  -0.020095827
              58.971                    0.207048518                   0.228039399                   6.368120683                  -0.020990882
              59.970                    0.206688092                   0.228592430                   6.473480767                  -0.021904337
              60.970                    0.206318374                   0.229154506                   6.578178829                  -0.022836132
              61.969                    0.205939368                   0.229725573                   6.682242070                  -0.023786204
              62.969                    0.205551079                   0.230305576                   6.785693432                  -0.024754496
              63.968                    0.205153513                   0.230894464                   6.888551894                  -0.025740950
              64.968                    0.204746677                   0.231492186                   6.990832773                  -0.026745509
              65.967                    0.204330577                   0.232098693                   7.092548019                  -0.027768116
              66.967                    0.203905222                   0.232713936                   7.193706512                  -0.028808715
              67.966                    0.203470618                   0.233337869                   7.294314342                  -0.029867251
              68.966                    0.203026776                   0.233970444                   7.394375089                  -0.030943668
              69.965                    0.202573703                   0.234611613                   7.493890087                  -0.032037910
              70.965                    0.202111410                   0.235261331                   7.592858674                  -0.033149920
              71.964                    0.201639906                   0.235919548                   7.691278432                  -0.034279642
              72.964                    0.201159201                   0.236586219                   7.789145413                  -0.035427018
              73.963                    0.200669307                   0.237261295                   7.886454350                  -0.036591989
              74.963                    0.200170232                   0.237944729                   7.983198855                  -0.037774496
              75.962                    0.199661990                   0.238636470                   8.079371599                  -0.038974479
              76.962                    0.199144592                   0.239336470                   8.174964485                  -0.040191877
              77.961                    0.198618050                   0.240044678                   8.269968799                  -0.041426628
              78.961                    0.198082375                   0.240761043                   8.364375357                  -0.042678667
              79.960                    0.197537581                   0.241485513                   8.458174632                  -0.043947931
              80.960                    0.196983681                   0.242218035                   8.551356873                  -0.045234354
              81.959                    0.196420688                   0.242958557                   8.643912211                  -0.046537869
              82.959                    0.195848616                   0.243707023                   8.735830753                  -0.047858407
              83.958                    0.195267478                   0.244463378                   8.827102669                  -0.049195900
              84.958                    0.194677290                   0.245227566                   8.917718266                  -0.050550277
              85.957                    0.194078065                   0.245999531                   9.007668057                  -0.051921466
              86.957                    0.193469819                   0.246779214                   9.096942815                  -0.053309395
              87.956                    0.192852567                   0.247566556                   9.185533627                  -0.054713989
              88.956                    0.192226324                   0.248361500                   9.273431936                  -0.056135175
              89.955                    0.191591108                   0.249163983                   9.360629579                  -0.057572876
              90.955                    0.190946933                   0.249973947                   9.447118815                  -0.059027015
              91.954                    0.190293816                   0.250791330                   9.532892351                  -0.060497513
              92.954                    0.189631775                   0.251616069                   9.617943364                  -0.061984294
              93.953                    0.188960826                   0.252448102                   9.702265514                  -0.063487275
              94.953                    0.188280988                   0.253287366                   9.785852957                  -0.065006378
              95.952                    0.187592277                   0.254133798                   9.868700351                  -0.066541521
              96.952                    0.186894712                   0.254987333                   9.950802863                  -0.068092621
              97.951                    0.186188312                   0.255847908                  10.032156167                  -0.069659596
              98.951                    0.185473094                   0.256715457                  10.112756445                  -0.071242363
              99.950                    0.184749078                   0.257589916                  10.192600382                  -0.072840838
             100.950                    0.184016284                   0.258471219                  10.271685160                  -0.074454935
             101.949                    0.183274730                   0.259359301                  10.350008454                  -0.076084571
             102.949                    0.182524436                   0.260254096                  10.427568417                  -0.077729660
             103.948                    0.181765423                   0.261155539                  10.504363674                  -0.079390116
             104.948                    0.180997710                   0.262063563                  10.580393308                  -0.081065853
             105.947                    0.180221318                   0.262978102                  10.655656850                  -0.082756784
             106.947                    0.179436268                   0.263899091                  10.730154261                  -0.084462823
             107.946                    0.178642581                   0.264826463                  10.803885925                  -0.086183882
             108.946                    0.177840277                   0.265760153                  10.876852627                  -0.087919876
             109.945                    0.177029379                   0.266700095                  10.949055543                  -0.089670716
             110.945                    0.176209908                   0.267646222                  11.020496223                  -0.091436315
             111.944                    0.175381885                   0.268598471                  11.091176576                  -0.093216585
             112.944                    0.174545333                   0.269556774                  11.161098856                  -0.095011440
             113.943                    0.173700274                   0.270521067                  11.230265643                  -0.096820793
             114.943                    0.172846730                   0.271491285                  11.298679830                  -0.098644554
             115.942                    0.171984724                   0.272467363                  11.366344609                  -0.100482639
             116.942                    0.171114279                   0.273449237                  11.433263452                  -0.102334958
             117.941                    0.170235416                   0.274436843                  11.499440101                  -0.104201427
             118.941                    0.169348160                   0.275430117                  11.564878549                  -0.106081956
             119.940                    0.168452534                   0.276428995                  11.629583028                  -0.107976461
             120.940                    0.167548561                   0.277433415                  11.693557994                  -0.109884855
             121.939                    0.166636263                   0.278443314                  11.756808114                  -0.111807051
             122.939                    0.165715666                   0.279458630                  11.819338253                  -0.113742964
             123.938                    0.164786792                   0.280479300                  11.881153460                  -0.115692508
             124.938                    0.163849666                   0.281505264                  11.942258954                  -0.117655599
             125.937                    0.162904311                   0.282536461                  12.002660117                  -0.119632151
             126.937                    0.161950751                   0.283572830                  12.062362477                  -0.121622079
             127.936                    0.160989010                   0.284614312                  12.121371698                  -0.123625301
             128.936                    0.160019114                   0.285660846                  12.179693572                  -0.125641732
             129.935                    0.159041085                   0.286712374                  12.237334003                  -0.127671289
             130.935                    0.158054948                   0.287768837                  12.294299001                  -0.129713889
             131.934                    0.157060728                   0.288830178                  12.350594674                  -0.131769450
             132.934                    0.156058449                   0.289896339                  12.406227212                  -0.133837890
             133.933                    0.155048136                   0.290967264                  12.461202883                  -0.135919128
             134.933                    0.154029814                   0.292042895                  12.515528024                  -0.138013082
             135.932                    0.153003506                   0.293123178                  12.569209034                  -0.140119672
             136.932                    0.151969239                   0.294208057                  12.622252360                  -0.142238818
             137.931                    0.150927036                   0.295297477                  12.674664497                  -0.144370442
