# Phonon free energy and specific heat from phonopy-FHI-aims
# Phonon zero point energy =            0.297179127 eV 
#     Temperature (K)          Free energy (eV/cell)     Internal energy (eV/cell)                 c_v (kB/cell)              -TS_vib(eV/cell)
               0.000                    0.297179127                   0.297179127                   0.000000000                  -0.000000000
               1.000                    0.297179127                   0.297179127                   0.000029930                  -0.000000000
               1.999                    0.297179122                   0.297179144                   0.000462586                  -0.000000022
               2.999                    0.297179098                   0.297179223                   0.001479617                  -0.000000125
               3.998                    0.297179030                   0.297179424                   0.003370724                  -0.000000394
               4.998                    0.297178889                   0.297179841                   0.006575854                  -0.000000952
               5.997                    0.297178634                   0.297180614                   0.011774270                  -0.000001980
               6.997                    0.297178207                   0.297181960                   0.020156581                  -0.000003753
               7.996                    0.297177530                   0.297184232                   0.033643273                  -0.000006702
               8.996                    0.297176486                   0.297187976                   0.054834490                  -0.000011491
               9.995                    0.297174912                   0.297193983                   0.086667381                  -0.000019071
              10.995                    0.297172587                   0.297203292                   0.131943627                  -0.000030705
              11.994                    0.297169223                   0.297217163                   0.192913965                  -0.000047940
              12.994                    0.297164470                   0.297237017                   0.271025218                  -0.000072547
              13.993                    0.297157916                   0.297264359                   0.366845400                  -0.000106443
              14.993                    0.297149103                   0.297300712                   0.480128254                  -0.000151609
              15.992                    0.297137530                   0.297347542                   0.609961357                  -0.000210012
              16.992                    0.297122673                   0.297406219                   0.754947352                  -0.000283547
              17.991                    0.297103990                   0.297477976                   0.913382368                  -0.000373986
              18.991                    0.297080937                   0.297563892                   1.083410818                  -0.000482955
              19.990                    0.297052974                   0.297664884                   1.263147726                  -0.000611910
              20.990                    0.297019573                   0.297781709                   1.450767710                  -0.000762136
              21.989                    0.296980223                   0.297914971                   1.644564189                  -0.000934748
              22.989                    0.296934437                   0.298065135                   1.842984363                  -0.001130698
              23.988                    0.296881752                   0.298232538                   2.044645778                  -0.001350786
              24.988                    0.296821731                   0.298417405                   2.248339812                  -0.001595674
              25.987                    0.296753967                   0.298619867                   2.453026440                  -0.001865900
              26.987                    0.296678078                   0.298839968                   2.657823667                  -0.002161890
              27.986                    0.296593714                   0.299077687                   2.861994093                  -0.002483973
              28.986                    0.296500547                   0.299332942                   3.064930307                  -0.002832394
              29.985                    0.296398281                   0.299605604                   3.266140230                  -0.003207324
              30.985                    0.296286638                   0.299895508                   3.465233077                  -0.003608870
              31.984                    0.296165370                   0.300202458                   3.661906304                  -0.004037087
              32.984                    0.296034248                   0.300526234                   3.855933715                  -0.004491987
              33.983                    0.295893063                   0.300866603                   4.047154753                  -0.004973540
              34.983                    0.295741627                   0.301223316                   4.235464938                  -0.005481689
              35.982                    0.295579769                   0.301596121                   4.420807385                  -0.006016352
              36.982                    0.295407336                   0.301984762                   4.603165280                  -0.006577425
              37.981                    0.295224189                   0.302388980                   4.782555236                  -0.007164791
              38.981                    0.295030203                   0.302808524                   4.959021433                  -0.007778321
              39.980                    0.294825266                   0.303243142                   5.132630441                  -0.008417877
              40.980                    0.294609277                   0.303692594                   5.303466673                  -0.009083317
              41.979                    0.294382149                   0.304156644                   5.471628385                  -0.009774495
              42.979                    0.294143800                   0.304635067                   5.637224177                  -0.010491266
              43.978                    0.293894161                   0.305127646                   5.800369942                  -0.011233485
              44.978                    0.293633168                   0.305634175                   5.961186215                  -0.012001008
              45.977                    0.293360765                   0.306154460                   6.119795896                  -0.012793695
              46.977                    0.293076905                   0.306688315                   6.276322295                  -0.013611411
              47.976                    0.292781543                   0.307235567                   6.430887488                  -0.014454024
              48.976                    0.292474642                   0.307796051                   6.583610933                  -0.015321409
              49.975                    0.292156169                   0.308369614                   6.734608337                  -0.016213445
              50.975                    0.291826095                   0.308956113                   6.883990743                  -0.017130018
              51.974                    0.291484396                   0.309555412                   7.031863805                  -0.018071016
              52.974                    0.291131050                   0.310167386                   7.178327247                  -0.019036336
              53.973                    0.290766038                   0.310791917                   7.323474470                  -0.020025879
              54.973                    0.290389346                   0.311428897                   7.467392291                  -0.021039551
              55.972                    0.290000959                   0.312078222                   7.610160804                  -0.022077262
              56.972                    0.289600869                   0.312739797                   7.751853339                  -0.023138928
              57.971                    0.289189065                   0.313413532                   7.892536505                  -0.024224467
              58.971                    0.288765540                   0.314099343                   8.032270310                  -0.025333803
              59.970                    0.288330290                   0.314797150                   8.171108334                  -0.026466860
              60.970                    0.287883311                   0.315506879                   8.309097956                  -0.027623569
              61.969                    0.287424599                   0.316228458                   8.446280613                  -0.028803859
              62.969                    0.286954154                   0.316961819                   8.582692096                  -0.030007665
              63.968                    0.286471975                   0.317706896                   8.718362864                  -0.031234922
              64.968                    0.285978063                   0.318463629                   8.853318368                  -0.032485566
              65.967                    0.285472419                   0.319231955                   8.987579395                  -0.033759535
              66.967                    0.284955047                   0.320011815                   9.121162406                  -0.035056768
              67.966                    0.284425950                   0.320803153                   9.254079875                  -0.036377203
              68.966                    0.283885131                   0.321605910                   9.386340630                  -0.037720779
              69.965                    0.283332596                   0.322420031                   9.517950182                  -0.039087436
              70.965                    0.282768349                   0.323245460                   9.648911042                  -0.040477111
              71.964                    0.282192398                   0.324082140                   9.779223030                  -0.041889743
              72.964                    0.281604748                   0.324930016                   9.908883574                  -0.043325269
              73.963                    0.281005406                   0.325789032                  10.037887985                  -0.044783625
              74.963                    0.280394382                   0.326659130                  10.166229729                  -0.046264748
              75.962                    0.279771683                   0.327540254                  10.293900674                  -0.047768571
              76.962                    0.279137317                   0.328432345                  10.420891323                  -0.049295027
              77.961                    0.278491296                   0.329335343                  10.547191039                  -0.050844048
              78.961                    0.277833627                   0.330249190                  10.672788241                  -0.052415563
              79.960                    0.277164323                   0.331173824                  10.797670597                  -0.054009501
              80.960                    0.276483393                   0.332109183                  10.921825193                  -0.055625789
              81.959                    0.275790851                   0.333055203                  11.045238692                  -0.057264353
              82.959                    0.275086706                   0.334011821                  11.167897481                  -0.058925115
              83.958                    0.274370972                   0.334978970                  11.289787797                  -0.060607998
              84.958                    0.273643663                   0.335956585                  11.410895846                  -0.062312922
              85.957                    0.272904791                   0.336944596                  11.531207912                  -0.064039805
              86.957                    0.272154370                   0.337942935                  11.650710446                  -0.065788565
              87.956                    0.271392415                   0.338951531                  11.769390153                  -0.067559116
              88.956                    0.270618940                   0.339970313                  11.887234067                  -0.069351373
              89.955                    0.269833962                   0.340999209                  12.004229610                  -0.071165247
              90.955                    0.269037496                   0.342038145                  12.120364651                  -0.073000649
              91.954                    0.268229558                   0.343087046                  12.235627555                  -0.074857488
              92.954                    0.267410165                   0.344145836                  12.350007219                  -0.076735671
              93.953                    0.266579334                   0.345214440                  12.463493108                  -0.078635106
              94.953                    0.265737083                   0.346292780                  12.576075281                  -0.080555696
              95.952                    0.264883431                   0.347380777                  12.687744414                  -0.082497346
              96.952                    0.264018395                   0.348478352                  12.798491813                  -0.084459957
              97.951                    0.263141995                   0.349585426                  12.908309430                  -0.086443431
              98.951                    0.262254250                   0.350701919                  13.017189865                  -0.088447669
              99.950                    0.261355180                   0.351827748                  13.125126374                  -0.090472569
             100.950                    0.260444805                   0.352962834                  13.232112866                  -0.092518029
             101.949                    0.259523147                   0.354107093                  13.338143903                  -0.094583946
             102.949                    0.258590225                   0.355260444                  13.443214690                  -0.096670218
             103.948                    0.257646062                   0.356422802                  13.547321072                  -0.098776740
             104.948                    0.256690680                   0.357594086                  13.650459521                  -0.100903406
             105.947                    0.255724100                   0.358774211                  13.752627124                  -0.103050111
             106.947                    0.254746346                   0.359963094                  13.853821571                  -0.105216748
             107.946                    0.253757440                   0.361160651                  13.954041139                  -0.107403212
             108.946                    0.252757405                   0.362366798                  14.053284676                  -0.109609393
             109.945                    0.251746266                   0.363581451                  14.151551587                  -0.111835185
             110.945                    0.250724046                   0.364804525                  14.248841812                  -0.114080479
             111.944                    0.249690770                   0.366035937                  14.345155811                  -0.116345167
             112.944                    0.248646462                   0.367275603                  14.440494546                  -0.118629141
             113.943                    0.247591148                   0.368523438                  14.534859459                  -0.120932291
             114.943                    0.246524852                   0.369779359                  14.628252455                  -0.123254508
             115.942                    0.245447600                   0.371043282                  14.720675884                  -0.125595683
             116.942                    0.244359418                   0.372315125                  14.812132519                  -0.127955707
             117.941                    0.243260331                   0.373594802                  14.902625538                  -0.130334471
             118.941                    0.242150368                   0.374882233                  14.992158505                  -0.132731865
             119.940                    0.241029553                   0.376177333                  15.080735354                  -0.135147781
             120.940                    0.239897913                   0.377480022                  15.168360365                  -0.137582109
             121.939                    0.238755477                   0.378790218                  15.255038149                  -0.140034740
             122.939                    0.237602271                   0.380107838                  15.340773630                  -0.142505567
             123.938                    0.236438323                   0.381432802                  15.425572029                  -0.144994479
             124.938                    0.235263660                   0.382765030                  15.509438843                  -0.147501370
             125.937                    0.234078310                   0.384104441                  15.592379830                  -0.150026131
             126.937                    0.232882302                   0.385450957                  15.674400994                  -0.152568655
             127.936                    0.231675664                   0.386804497                  15.755508570                  -0.155128834
             128.936                    0.230458424                   0.388164985                  15.835709004                  -0.157706561
             129.935                    0.229230610                   0.389532341                  15.915008943                  -0.160301731
             130.935                    0.227992253                   0.390906489                  15.993415220                  -0.162914236
             131.934                    0.226743380                   0.392287351                  16.070934838                  -0.165543972
             132.934                    0.225484020                   0.393674853                  16.147574956                  -0.168190832
             133.933                    0.224214204                   0.395068918                  16.223342882                  -0.170854714
             134.933                    0.222933960                   0.396469471                  16.298246053                  -0.173535511
             135.932                    0.221643317                   0.397876439                  16.372292030                  -0.176233122
             136.932                    0.220342306                   0.399289748                  16.445488479                  -0.178947442
             137.931                    0.219030956                   0.400709325                  16.517843170                  -0.181678370
