# Phonon free energy and specific heat from phonopy-FHI-aims
# Phonon zero point energy =            0.597126002 eV 
#     Temperature (K)          Free energy (eV/cell)     Internal energy (eV/cell)                 c_v (kB/cell)              -TS_vib(eV/cell)
               0.000                    0.597126002                   0.597126002                   0.000000000                  -0.000000000
               1.000                    0.597126001                   0.597126007                   0.000206462                  -0.000000005
               1.999                    0.597125981                   0.597126060                   0.001184060                  -0.000000078
               2.999                    0.597125909                   0.597126249                   0.003504698                  -0.000000339
               3.998                    0.597125735                   0.597126727                   0.008032507                  -0.000000992
               4.998                    0.597125385                   0.597127723                   0.015738608                  -0.000002338
               5.997                    0.597124762                   0.597129569                   0.028047836                  -0.000004807
               6.997                    0.597123732                   0.597132752                   0.047282287                  -0.000009021
               7.996                    0.597122114                   0.597138015                   0.077036649                  -0.000015901
               8.996                    0.597119660                   0.597146463                   0.122130680                  -0.000026803
               9.995                    0.597116027                   0.597159651                   0.188038725                  -0.000043624
              10.995                    0.597110765                   0.597179605                   0.280045448                  -0.000068840
              11.994                    0.597103299                   0.597208766                   0.402465408                  -0.000105467
              12.994                    0.597092935                   0.597249890                   0.558140388                  -0.000156955
              13.993                    0.597078866                   0.597305903                   0.748264175                  -0.000227037
              14.993                    0.597060186                   0.597379766                   0.972475683                  -0.000319580
              15.992                    0.597035918                   0.597474354                   1.229120510                  -0.000438435
              16.992                    0.597005032                   0.597592352                   1.515585759                  -0.000587320
              17.991                    0.596966466                   0.597736193                   1.828637686                  -0.000769728
              18.991                    0.596919150                   0.597908016                   2.164719773                  -0.000988865
              19.990                    0.596862023                   0.598109646                   2.520191820                  -0.001247622
              20.990                    0.596794046                   0.598342600                   2.891506528                  -0.001548554
              21.989                    0.596714214                   0.598608097                   3.275329170                  -0.001893884
              22.989                    0.596621562                   0.598907082                   3.668610231                  -0.002285520
              23.988                    0.596515176                   0.599240247                   4.068621877                  -0.002725071
              24.988                    0.596394194                   0.599608069                   4.472968331                  -0.003213875
              25.987                    0.596257806                   0.600010829                   4.879578605                  -0.003753023
              26.987                    0.596105257                   0.600448643                   5.286688196                  -0.004343385
              27.986                    0.595935849                   0.600921488                   5.692814608                  -0.004985639
              28.986                    0.595748933                   0.601429227                   6.096730126                  -0.005680293
              29.985                    0.595543914                   0.601971623                   6.497434082                  -0.006427708
              30.985                    0.595320245                   0.602548363                   6.894126033                  -0.007228118
              31.984                    0.595077425                   0.603159076                   7.286180639                  -0.008081651
              32.984                    0.594814997                   0.603803339                   7.673124612                  -0.008988342
              33.983                    0.594532545                   0.604480696                   8.054615873                  -0.009948152
              34.983                    0.594229691                   0.605190669                   8.430424857                  -0.010960977
              35.982                    0.593906095                   0.605932760                   8.800417851                  -0.012026665
              36.982                    0.593561446                   0.606706466                   9.164542188                  -0.013145020
              37.981                    0.593195465                   0.607511281                   9.522813119                  -0.014315816
              38.981                    0.592807902                   0.608346706                   9.875302199                  -0.015538803
              39.980                    0.592398532                   0.609212245                  10.222127016                  -0.016813712
              40.980                    0.591967153                   0.610107417                  10.563442133                  -0.018140264
              41.979                    0.591513585                   0.611031757                  10.899431102                  -0.019518172
              42.979                    0.591037666                   0.611984813                  11.230299471                  -0.020947147
              43.978                    0.590539254                   0.612966155                  11.556268650                  -0.022426901
              44.978                    0.590018221                   0.613975369                  11.877570588                  -0.023957148
              45.977                    0.589474456                   0.615012065                  12.194443165                  -0.025537609
              46.977                    0.588907860                   0.616075872                  12.507126241                  -0.027168012
              47.976                    0.588318344                   0.617166438                  12.815858297                  -0.028848094
              48.976                    0.587705832                   0.618283433                  13.120873611                  -0.030577601
              49.975                    0.587070257                   0.619426547                  13.422399926                  -0.032356290
              50.975                    0.586411562                   0.620595490                  13.720656543                  -0.034183928
              51.974                    0.585729696                   0.621789989                  14.015852816                  -0.036060293
              52.974                    0.585024614                   0.623009788                  14.308186983                  -0.037985173
              53.973                    0.584296282                   0.624254649                  14.597845315                  -0.039958368
              54.973                    0.583544665                   0.625524350                  14.885001527                  -0.041979685
              55.972                    0.582769740                   0.626818682                  15.169816428                  -0.044048942
              56.972                    0.581971482                   0.628137449                  15.452437774                  -0.046165967
              57.971                    0.581149876                   0.629480469                  15.733000296                  -0.048330594
              58.971                    0.580304906                   0.630847570                  16.011625874                  -0.050542664
              59.970                    0.579436562                   0.632238590                  16.288423832                  -0.052802028
              60.970                    0.578544836                   0.633653375                  16.563491336                  -0.055108539
              61.969                    0.577629723                   0.635091780                  16.836913870                  -0.057462057
              62.969                    0.576691221                   0.636553667                  17.108765781                  -0.059862446
              63.968                    0.575729329                   0.638038904                  17.379110858                  -0.062309575
              64.968                    0.574744048                   0.639547362                  17.648002960                  -0.064803314
              65.967                    0.573735382                   0.641078919                  17.915486655                  -0.067343538
              66.967                    0.572703336                   0.642633456                  18.181597875                  -0.069930119
              67.966                    0.571647918                   0.644210854                  18.446364569                  -0.072562936
              68.966                    0.570569135                   0.645811000                  18.709807355                  -0.075241865
              69.965                    0.569466998                   0.647433780                  18.971940161                  -0.077966782
              70.965                    0.568341517                   0.649079081                  19.232770843                  -0.080737564
              71.964                    0.567192705                   0.650746792                  19.492301792                  -0.083554087
              72.964                    0.566020575                   0.652436800                  19.750530509                  -0.086416225
              73.963                    0.564825142                   0.654148993                  20.007450160                  -0.089323851
              74.963                    0.563606422                   0.655883258                  20.263050096                  -0.092276836
              75.962                    0.562364432                   0.657639481                  20.517316353                  -0.095275049
              76.962                    0.561099190                   0.659417546                  20.770232111                  -0.098318355
              77.961                    0.559810715                   0.661217335                  21.021778133                  -0.101406620
              78.961                    0.558499027                   0.663038731                  21.271933170                  -0.104539703
              79.960                    0.557164148                   0.664881611                  21.520674331                  -0.107717464
              80.960                    0.555806098                   0.666745854                  21.767977435                  -0.110939756
              81.959                    0.554424902                   0.668631335                  22.013817322                  -0.114206433
              82.959                    0.553020584                   0.670537926                  22.258168150                  -0.117517342
              83.958                    0.551593168                   0.672465497                  22.501003652                  -0.120872330
              84.958                    0.550142680                   0.674413919                  22.742297380                  -0.124271239
              85.957                    0.548669148                   0.676383055                  22.982022918                  -0.127713907
              86.957                    0.547172599                   0.678372771                  23.220154075                  -0.131200172
              87.956                    0.545653061                   0.680382927                  23.456665057                  -0.134729866
              88.956                    0.544110566                   0.682413383                  23.691530618                  -0.138302817
              89.955                    0.542545143                   0.684463997                  23.924726194                  -0.141918854
              90.955                    0.540956825                   0.686534623                  24.156228019                  -0.145577799
              91.954                    0.539345642                   0.688625115                  24.386013223                  -0.149279473
              92.954                    0.537711630                   0.690735324                  24.614059921                  -0.153023694
              93.953                    0.536054822                   0.692865098                  24.840347280                  -0.156810276
              94.953                    0.534375253                   0.695014286                  25.064855582                  -0.160639034
              95.952                    0.532672960                   0.697182734                  25.287566269                  -0.164509775
              96.952                    0.530947978                   0.699370287                  25.508461980                  -0.168422308
              97.951                    0.529200347                   0.701576786                  25.727526582                  -0.172376438
              98.951                    0.527430105                   0.703802074                  25.944745184                  -0.176371969
              99.950                    0.525637291                   0.706045991                  26.160104152                  -0.180408700
             100.950                    0.523821944                   0.708308376                  26.373591112                  -0.184486432
             101.949                    0.521984108                   0.710589068                  26.585194949                  -0.188604960
             102.949                    0.520123822                   0.712887904                  26.794905796                  -0.192764082
             103.948                    0.518241130                   0.715204721                  27.002715027                  -0.196963591
             104.948                    0.516336075                   0.717539354                  27.208615236                  -0.201203279
             105.947                    0.514408702                   0.719891639                  27.412600219                  -0.205482938
             106.947                    0.512459054                   0.722261411                  27.614664950                  -0.209802357
             107.946                    0.510487177                   0.724648504                  27.814805553                  -0.214161326
             108.946                    0.508493119                   0.727052752                  28.013019272                  -0.218559633
             109.945                    0.506476925                   0.729473989                  28.209304447                  -0.222997064
             110.945                    0.504438643                   0.731912049                  28.403660472                  -0.227473406
             111.944                    0.502378321                   0.734366766                  28.596087768                  -0.231988445
             112.944                    0.500296008                   0.736837974                  28.786587744                  -0.236541966
             113.943                    0.498191754                   0.739325507                  28.975162764                  -0.241133753
             114.943                    0.496065608                   0.741829199                  29.161816111                  -0.245763591
             115.942                    0.493917622                   0.744348885                  29.346551945                  -0.250431263
             116.942                    0.491747845                   0.746884400                  29.529375274                  -0.255136555
             117.941                    0.489556330                   0.749435579                  29.710291912                  -0.259879249
             118.941                    0.487343129                   0.752002259                  29.889308443                  -0.264659129
             119.940                    0.485108295                   0.754584276                  30.066432186                  -0.269475980
             120.940                    0.482851881                   0.757181467                  30.241671159                  -0.274329586
             121.939                    0.480573940                   0.759793671                  30.415034043                  -0.279219731
             122.939                    0.478274526                   0.762420727                  30.586530146                  -0.284146200
             123.938                    0.475953695                   0.765062473                  30.756169373                  -0.289108778
             124.938                    0.473611500                   0.767718751                  30.923962187                  -0.294107251
             125.937                    0.471247997                   0.770389402                  31.089919579                  -0.299141405
             126.937                    0.468863242                   0.773074268                  31.254053039                  -0.304211026
             127.936                    0.466457291                   0.775773193                  31.416374520                  -0.309315902
             128.936                    0.464030200                   0.778486021                  31.576896410                  -0.314455821
             129.935                    0.461582026                   0.781212598                  31.735631505                  -0.319630572
             130.935                    0.459112826                   0.783952770                  31.892592977                  -0.324839944
             131.934                    0.456622657                   0.786706385                  32.047794349                  -0.330083729
             132.934                    0.454111576                   0.789473293                  32.201249470                  -0.335361717
             133.933                    0.451579643                   0.792253343                  32.352972486                  -0.340673701
             134.933                    0.449026914                   0.795046388                  32.502977817                  -0.346019474
             135.932                    0.446453448                   0.797852278                  32.651280135                  -0.351398830
             136.932                    0.443859303                   0.800670869                  32.797894340                  -0.356811566
             137.931                    0.441244539                   0.803502016                  32.942835538                  -0.362257477
