# Phonon free energy and specific heat from phonopy-FHI-aims
# Phonon zero point energy =            0.055102556 eV 
#     Temperature (K)          Free energy (eV/cell)     Internal energy (eV/cell)                 c_v (kB/cell)              -TS_vib(eV/cell)
               0.000                    0.055102556                   0.055102556                   0.000000000                  -0.000000000
               1.000                    0.055102412                   0.055102902                   0.012867117                  -0.000000490
               1.999                    0.055101139                   0.055105730                   0.058936129                  -0.000004591
               2.999                    0.055097329                   0.055114031                   0.138873214                  -0.000016702
               3.998                    0.055089543                   0.055130435                   0.246143887                  -0.000040892
               4.998                    0.055076469                   0.055157072                   0.375725990                  -0.000080603
               5.997                    0.055056933                   0.055195668                   0.523081895                  -0.000138735
               6.997                    0.055029901                   0.055247558                   0.683666395                  -0.000217657
               7.996                    0.054994466                   0.055313696                   0.853291218                  -0.000319230
               8.996                    0.054949855                   0.055394706                   1.028499898                  -0.000444851
               9.995                    0.054895410                   0.055490951                   1.206702883                  -0.000595541
              10.995                    0.054830579                   0.055602608                   1.386124793                  -0.000772029
              11.994                    0.054754901                   0.055729729                   1.565663080                  -0.000974828
              12.994                    0.054667991                   0.055872296                   1.744725339                  -0.001204305
              13.993                    0.054569525                   0.056030256                   1.923077735                  -0.001460731
              14.993                    0.054459231                   0.056203546                   2.100716550                  -0.001744314
              15.992                    0.054336878                   0.056392109                   2.277765518                  -0.002055231
              16.992                    0.054202265                   0.056595903                   2.454398003                  -0.002393638
              17.991                    0.054055219                   0.056814898                   2.630781573                  -0.002759679
              18.991                    0.053895586                   0.057049080                   2.807041880                  -0.003153493
              19.990                    0.053723230                   0.057298440                   2.983242376                  -0.003575210
              20.990                    0.053538026                   0.057562973                   3.159376330                  -0.004024947
              21.989                    0.053339866                   0.057842672                   3.335367804                  -0.004502806
              22.989                    0.053128649                   0.058137518                   3.511078638                  -0.005008869
              23.988                    0.052904284                   0.058447479                   3.686318974                  -0.005543195
              24.988                    0.052666690                   0.058772505                   3.860859418                  -0.006105815
              25.987                    0.052415796                   0.059112526                   4.034443437                  -0.006696729
              26.987                    0.052151538                   0.059467446                   4.206799031                  -0.007315908
              27.986                    0.051873860                   0.059837148                   4.377649111                  -0.007963288
              28.986                    0.051582717                   0.060221491                   4.546720286                  -0.008638774
              29.985                    0.051278071                   0.060620311                   4.713749942                  -0.009342239
              30.985                    0.050959893                   0.061033419                   4.878491700                  -0.010073526
              31.984                    0.050628161                   0.061460610                   5.040719341                  -0.010832450
              32.984                    0.050282862                   0.061901659                   5.200229426                  -0.011618797
              33.983                    0.049923991                   0.062356322                   5.356842779                  -0.012432331
              34.983                    0.049551550                   0.062824344                   5.510405049                  -0.013272794
              35.982                    0.049165550                   0.063305457                   5.660786541                  -0.014139907
              36.982                    0.048766007                   0.063799381                   5.807881490                  -0.015033374
              37.981                    0.048352944                   0.064305829                   5.951606912                  -0.015952885
              38.981                    0.047926392                   0.064824510                   6.091901180                  -0.016898117
              39.980                    0.047486387                   0.065355124                   6.228722403                  -0.017868737
              40.980                    0.047032970                   0.065897373                   6.362046718                  -0.018864403
              41.979                    0.046566189                   0.066450954                   6.491866536                  -0.019884765
              42.979                    0.046086095                   0.067015565                   6.618188808                  -0.020929471
              43.978                    0.045592745                   0.067590907                   6.741033345                  -0.021998163
              44.978                    0.045086199                   0.068176681                   6.860431211                  -0.023090482
              45.977                    0.044566523                   0.068772592                   6.976423213                  -0.024206069
              46.977                    0.044033785                   0.069378348                   7.089058502                  -0.025344563
              47.976                    0.043488055                   0.069993663                   7.198393283                  -0.026505607
              48.976                    0.042929410                   0.070618255                   7.304489637                  -0.027688845
              49.975                    0.042357925                   0.071251848                   7.407414460                  -0.028893923
              50.975                    0.041773680                   0.071894172                   7.507238503                  -0.030120492
              51.974                    0.041176756                   0.072544962                   7.604035523                  -0.031368206
              52.974                    0.040567238                   0.073203963                   7.697881527                  -0.032636725
              53.973                    0.039945210                   0.073870922                   7.788854103                  -0.033925712
              54.973                    0.039310759                   0.074545596                   7.877031837                  -0.035234836
              55.972                    0.038663973                   0.075227746                   7.962493809                  -0.036563773
              56.972                    0.038004940                   0.075917144                   8.045319146                  -0.037912204
              57.971                    0.037333750                   0.076613565                   8.125586654                  -0.039279814
              58.971                    0.036650494                   0.077316792                   8.203374487                  -0.040666298
              59.970                    0.035955262                   0.078026614                   8.278759884                  -0.042071352
              60.970                    0.035248146                   0.078742829                   8.351818934                  -0.043494683
              61.969                    0.034529238                   0.079465239                   8.422626392                  -0.044936002
              62.969                    0.033798628                   0.080193654                   8.491255524                  -0.046395025
              63.968                    0.033056410                   0.080927888                   8.557777981                  -0.047871478
              64.968                    0.032302675                   0.081667764                   8.622263709                  -0.049365088
              65.967                    0.031537515                   0.082413108                   8.684780867                  -0.050875593
              66.967                    0.030761021                   0.083163755                   8.745395780                  -0.052402734
              67.966                    0.029973285                   0.083919543                   8.804172900                  -0.053946258
              68.966                    0.029174397                   0.084680316                   8.861174786                  -0.055505920
              69.965                    0.028364447                   0.085445925                   8.916462093                  -0.057081478
              70.965                    0.027543527                   0.086216224                   8.970093582                  -0.058672697
              71.964                    0.026711725                   0.086991073                   9.022126122                  -0.060279348
              72.964                    0.025869130                   0.087770337                   9.072614721                  -0.061901207
              73.963                    0.025015831                   0.088553885                   9.121612540                  -0.063538054
              74.963                    0.024151915                   0.089341590                   9.169170937                  -0.065189676
              75.962                    0.023277469                   0.090133332                   9.215339491                  -0.066855863
              76.962                    0.022392579                   0.090928992                   9.260166052                  -0.068536414
              77.961                    0.021497330                   0.091728457                   9.303696775                  -0.070231127
              78.961                    0.020591809                   0.092531617                   9.345976170                  -0.071939808
              79.960                    0.019676097                   0.093338366                   9.387047143                  -0.073662269
              80.960                    0.018750279                   0.094148602                   9.426951045                  -0.075398323
              81.959                    0.017814438                   0.094962226                   9.465727721                  -0.077147789
              82.959                    0.016868653                   0.095779143                   9.503415553                  -0.078910490
              83.958                    0.015913007                   0.096599260                   9.540051513                  -0.080686254
              84.958                    0.014947578                   0.097422489                   9.575671204                  -0.082474911
              85.957                    0.013972447                   0.098248743                   9.610308914                  -0.084276297
              86.957                    0.012987690                   0.099077940                   9.643997655                  -0.086090250
              87.956                    0.011993386                   0.099909998                   9.676769213                  -0.087916612
              88.956                    0.010989611                   0.100744841                   9.708654192                  -0.089755230
              89.955                    0.009976440                   0.101582393                   9.739682055                  -0.091605953
              90.955                    0.008953948                   0.102422581                   9.769881167                  -0.093468633
              91.954                    0.007922209                   0.103265336                   9.799278837                  -0.095343127
              92.954                    0.006881295                   0.104110589                   9.827901361                  -0.097229293
              93.953                    0.005831280                   0.104958275                   9.855774052                  -0.099126995
              94.953                    0.004772234                   0.105808330                   9.882921287                  -0.101036096
              95.952                    0.003704228                   0.106660693                   9.909366538                  -0.102956465
              96.952                    0.002627331                   0.107515304                   9.935132408                  -0.104887973
              97.951                    0.001541612                   0.108372106                   9.960240666                  -0.106830494
              98.951                    0.000447139                   0.109231043                   9.984712278                  -0.108783904
              99.950                   -0.000656021                   0.110092061                  10.008567440                  -0.110748082
             100.950                   -0.001767801                   0.110955108                  10.031825608                  -0.112722909
             101.949                   -0.002888136                   0.111820133                  10.054505527                  -0.114708269
             102.949                   -0.004016961                   0.112687088                  10.076625257                  -0.116704049
             103.948                   -0.005154213                   0.113555924                  10.098202205                  -0.118710136
             104.948                   -0.006299827                   0.114426595                  10.119253145                  -0.120726422
             105.947                   -0.007453743                   0.115299058                  10.139794249                  -0.122752801
             106.947                   -0.008615898                   0.116173268                  10.159841103                  -0.124789166
             107.946                   -0.009786230                   0.117049185                  10.179408740                  -0.126835415
             108.946                   -0.010964682                   0.117926766                  10.198511653                  -0.128891448
             109.945                   -0.012151191                   0.118805974                  10.217163821                  -0.130957165
             110.945                   -0.013345702                   0.119686769                  10.235378728                  -0.133032471
             111.944                   -0.014548154                   0.120569115                  10.253169384                  -0.135117268
             112.944                   -0.015758491                   0.121452975                  10.270548340                  -0.137211466
             113.943                   -0.016976657                   0.122338314                  10.287527709                  -0.139314971
             114.943                   -0.018202595                   0.123225100                  10.304119184                  -0.141427694
             115.942                   -0.019436250                   0.124113298                  10.320334051                  -0.143549548
             116.942                   -0.020677569                   0.125002876                  10.336183206                  -0.145680445
             117.941                   -0.021926497                   0.125893805                  10.351677172                  -0.147820301
             118.941                   -0.023182980                   0.126786053                  10.366826112                  -0.149969033
             119.940                   -0.024446967                   0.127679591                  10.381639842                  -0.152126558
             120.940                   -0.025718406                   0.128574391                  10.396127847                  -0.154292797
             121.939                   -0.026997244                   0.129470426                  10.410299290                  -0.156467670
             122.939                   -0.028283433                   0.130367667                  10.424163029                  -0.158651100
             123.938                   -0.029576920                   0.131266090                  10.437727623                  -0.160843010
             124.938                   -0.030877658                   0.132165669                  10.451001350                  -0.163043327
             125.937                   -0.032185597                   0.133066378                  10.463992210                  -0.165251976
             126.937                   -0.033500689                   0.133968195                  10.476707941                  -0.167468884
             127.936                   -0.034822887                   0.134871095                  10.489156030                  -0.169693982
             128.936                   -0.036152142                   0.135775056                  10.501343716                  -0.171927198
             129.935                   -0.037488409                   0.136680056                  10.513278004                  -0.174168465
             130.935                   -0.038831642                   0.137586073                  10.524965673                  -0.176417715
             131.934                   -0.040181795                   0.138493086                  10.536413285                  -0.178674881
             132.934                   -0.041538822                   0.139401075                  10.547627191                  -0.180939897
             133.933                   -0.042902680                   0.140310020                  10.558613540                  -0.183212701
             134.933                   -0.044273326                   0.141219902                  10.569378285                  -0.185493228
             135.932                   -0.045650714                   0.142130702                  10.579927194                  -0.187781416
             136.932                   -0.047034803                   0.143042401                  10.590265851                  -0.190077204
             137.931                   -0.048425550                   0.143954982                  10.600399668                  -0.192380532
