# Phonon free energy and specific heat from phonopy-FHI-aims
# Phonon zero point energy =            0.181311044 eV 
#     Temperature (K)          Free energy (eV/cell)     Internal energy (eV/cell)                 c_v (kB/cell)              -TS_vib(eV/cell)
               0.000                    0.181311044                   0.181311044                   0.000000000                  -0.000000000
              20.000                    0.181207241                   0.181603695                   0.612913389                  -0.000396454
              40.000                    0.180111292                   0.183954157                   2.121545566                  -0.003842865
              60.000                    0.177234459                   0.188813610                   3.480603750                  -0.011579152
              80.000                    0.172370714                   0.195844139                   4.652598553                  -0.023473425
             100.000                    0.165506100                   0.204773621                   5.688530784                  -0.039267521
             120.000                    0.156682452                   0.215379409                   6.597672494                  -0.058696957
             140.000                    0.145964700                   0.227442041                   7.379461466                  -0.081477341
             160.000                    0.133430591                   0.240746245                   8.040172004                  -0.107315654
             180.000                    0.119164509                   0.255093815                   8.592733747                  -0.135929305
             200.000                    0.103252830                   0.270311710                   9.052795892                  -0.167058880
             220.000                    0.085780641                   0.286253972                   9.435782341                  -0.200473331
             240.000                    0.066829683                   0.302799904                   9.755445587                  -0.235970222
             260.000                    0.046477204                   0.319850703                  10.023412728                  -0.273373499
             280.000                    0.024795448                   0.337325783                  10.249234891                  -0.312530335
             300.000                    0.001851545                   0.355159409                  10.440640650                  -0.353307865
             320.000                   -0.022292360                   0.373297815                  10.603840696                  -0.395590175
             340.000                   -0.047578841                   0.391696839                  10.743816200                  -0.439275680
             360.000                   -0.073954874                   0.410320025                  10.864566708                  -0.484274898
             380.000                   -0.101371477                   0.429137115                  10.969313328                  -0.530508592
             400.000                   -0.129783374                   0.448122850                  11.060661145                  -0.577906224
             420.000                   -0.159148662                   0.467256024                  11.140727358                  -0.626404686
             440.000                   -0.189428499                   0.486518735                  11.211241725                  -0.675947233
             460.000                   -0.220586828                   0.505895783                  11.273625168                  -0.726482611
             480.000                   -0.252590120                   0.525374198                  11.329051307                  -0.777964318
             500.000                   -0.285407137                   0.544942856                  11.378494761                  -0.830349993
             520.000                   -0.319008731                   0.564592167                  11.422769190                  -0.883600898
             540.000                   -0.353367653                   0.584313827                  11.462557380                  -0.937681480
             560.000                   -0.388458386                   0.604100615                  11.498435153                  -0.992559002
             580.000                   -0.424256996                   0.623946224                  11.530890450                  -1.048203221
             600.000                   -0.460740997                   0.643845122                  11.560338656                  -1.104586119
             620.000                   -0.497889228                   0.663792441                  11.587134946                  -1.161681669
             640.000                   -0.535681747                   0.683783879                  11.611584303                  -1.219465626
             660.000                   -0.574099733                   0.703815624                  11.633949668                  -1.277915357
             680.000                   -0.613125396                   0.723884285                  11.654458615                  -1.337009682
             700.000                   -0.652741900                   0.743986837                  11.673308838                  -1.396728737
             720.000                   -0.692933288                   0.764120572                  11.690672686                  -1.457053861
             740.000                   -0.733684420                   0.784283062                  11.706700914                  -1.517967482
             760.000                   -0.774980911                   0.804472122                  11.721525825                  -1.579453032
             780.000                   -0.816809078                   0.824685779                  11.735263883                  -1.641494858
             800.000                   -0.859155896                   0.844922252                  11.748017919                  -1.704078148
             820.000                   -0.902008944                   0.865179924                  11.759878982                  -1.767188868
             840.000                   -0.945356371                   0.885457328                  11.770927908                  -1.830813699
             860.000                   -0.989186860                   0.905753126                  11.781236661                  -1.894939986
             880.000                   -1.033489587                   0.926066100                  11.790869459                  -1.959555687
             900.000                   -1.078254196                   0.946395135                  11.799883752                  -2.024649331
             920.000                   -1.123470765                   0.966739210                  11.808331052                  -2.090209975
             940.000                   -1.169129786                   0.987097389                  11.816257652                  -2.156227175
             960.000                   -1.215222134                   1.007468811                  11.823705240                  -2.222690944
             980.000                   -1.261739047                   1.027852683                  11.830711441                  -2.289591729
            1000.000                   -1.308672106                   1.048248274                  11.837310275                  -2.356920380
            1020.000                   -1.356013215                   1.068654909                  11.843532562                  -2.424668124
            1040.000                   -1.403754582                   1.089071964                  11.849406278                  -2.492826546
            1060.000                   -1.451888704                   1.109498860                  11.854956860                  -2.561387565
            1080.000                   -1.500408350                   1.129935061                  11.860207477                  -2.630343412
            1100.000                   -1.549306548                   1.150380068                  11.865179267                  -2.699686616
            1120.000                   -1.598576570                   1.170833417                  11.869891547                  -2.769409987
            1140.000                   -1.648211920                   1.191294677                  11.874361995                  -2.839506597
            1160.000                   -1.698206324                   1.211763445                  11.878606817                  -2.909969770
            1180.000                   -1.748553717                   1.232239345                  11.882640887                  -2.980793063
            1200.000                   -1.799248234                   1.252722026                  11.886477878                  -3.051970261
            1220.000                   -1.850284198                   1.273211160                  11.890130378                  -3.123495358
            1240.000                   -1.901656116                   1.293706437                  11.893609988                  -3.195362553
            1260.000                   -1.953358664                   1.314207571                  11.896927412                  -3.267566234
            1280.000                   -2.005386684                   1.334714289                  11.900092544                  -3.340100973
            1300.000                   -2.057735178                   1.355226338                  11.903114537                  -3.412961515
            1320.000                   -2.110399292                   1.375743477                  11.906001867                  -3.486142770
            1340.000                   -2.163374322                   1.396265483                  11.908762395                  -3.559639805
            1360.000                   -2.216655696                   1.416792142                  11.911403417                  -3.633447838
            1380.000                   -2.270238977                   1.437323255                  11.913931715                  -3.707562232
            1400.000                   -2.324119851                   1.457858633                  11.916353596                  -3.781978484
            1420.000                   -2.378294127                   1.478398097                  11.918674935                  -3.856692224
            1440.000                   -2.432757728                   1.498941480                  11.920901206                  -3.931699208
            1460.000                   -2.487506690                   1.519488621                  11.923037518                  -4.006995311
            1480.000                   -2.542537153                   1.540039370                  11.925088642                  -4.082576523
            1500.000                   -2.597845361                   1.560593583                  11.927059037                  -4.158438944
            1520.000                   -2.653427655                   1.581151127                  11.928952875                  -4.234578781
            1540.000                   -2.709280472                   1.601711870                  11.930774063                  -4.310992342
            1560.000                   -2.765400339                   1.622275693                  11.932526262                  -4.387676032
            1580.000                   -2.821783871                   1.642842479                  11.934212905                  -4.464626350
            1600.000                   -2.878427768                   1.663412117                  11.935837216                  -4.541839885
            1620.000                   -2.935328808                   1.683984503                  11.937402222                  -4.619313312
            1640.000                   -2.992483852                   1.704559538                  11.938910771                  -4.697043390
            1660.000                   -3.049889833                   1.725137126                  11.940365540                  -4.775026958
            1680.000                   -3.107543757                   1.745717176                  11.941769051                  -4.853260933
            1700.000                   -3.165442701                   1.766299603                  11.943123680                  -4.931742304
            1720.000                   -3.223583811                   1.786884324                  11.944431666                  -5.010468135
            1740.000                   -3.281964297                   1.807471260                  11.945695124                  -5.089435557
            1760.000                   -3.340581431                   1.828060338                  11.946916047                  -5.168641769
            1780.000                   -3.399432550                   1.848651484                  11.948096322                  -5.248084033
            1800.000                   -3.458515045                   1.869244630                  11.949237729                  -5.327759675
            1820.000                   -3.517826369                   1.889839712                  11.950341954                  -5.407666080
            1840.000                   -3.577364027                   1.910436665                  11.951410592                  -5.487800692
            1860.000                   -3.637125579                   1.931035431                  11.952445154                  -5.568161010
            1880.000                   -3.697108637                   1.951635952                  11.953447071                  -5.648744589
            1900.000                   -3.757310863                   1.972238172                  11.954417701                  -5.729549035
            1920.000                   -3.817729967                   1.992842039                  11.955358330                  -5.810572006
            1940.000                   -3.878363707                   2.013447502                  11.956270181                  -5.891811209
            1960.000                   -3.939209886                   2.034054513                  11.957154414                  -5.973264399
            1980.000                   -4.000266352                   2.054663025                  11.958012133                  -6.054929376
            2000.000                   -4.061530995                   2.075272992                  11.958844384                  -6.136803988
