# Phonon free energy and specific heat from phonopy-FHI-aims
# Phonon zero point energy =            0.212251450 eV 
#     Temperature (K)          Free energy (eV/cell)     Internal energy (eV/cell)                 c_v (kB/cell)              -TS_vib(eV/cell)
               0.000                    0.212251450                   0.212251450                   0.000000000                  -0.000000000
               1.000                    0.212251449                   0.212251457                   0.000491744                  -0.000000008
               1.999                    0.212251398                   0.212251621                   0.003592399                  -0.000000223
               2.999                    0.212251194                   0.212252132                   0.008779409                  -0.000000938
               3.998                    0.212250735                   0.212253252                   0.018058119                  -0.000002518
               4.998                    0.212249883                   0.212255405                   0.033015907                  -0.000005522
               5.997                    0.212248458                   0.212259164                   0.055835806                  -0.000010706
               6.997                    0.212246225                   0.212265353                   0.090173129                  -0.000019128
               7.996                    0.212242875                   0.212275163                   0.140717841                  -0.000032288
               8.996                    0.212238000                   0.212290191                   0.212049223                  -0.000052191
               9.995                    0.212231087                   0.212312388                   0.307608013                  -0.000081301
              10.995                    0.212221517                   0.212343929                   0.429189293                  -0.000122411
              11.994                    0.212208581                   0.212387072                   0.576931652                  -0.000178491
              12.994                    0.212191500                   0.212444028                   0.749604115                  -0.000252528
              13.993                    0.212169451                   0.212516853                   0.945000873                  -0.000347402
              14.993                    0.212141588                   0.212607387                   1.160324026                  -0.000465799
              15.992                    0.212107063                   0.212717215                   1.392499740                  -0.000610151
              16.992                    0.212065045                   0.212847654                   1.638414456                  -0.000782609
              17.991                    0.212014729                   0.212999757                   1.895078094                  -0.000985028
              18.991                    0.211955349                   0.213174330                   2.159728233                  -0.001218981
              19.990                    0.211886183                   0.213371951                   2.429889743                  -0.001485769
              20.990                    0.211806556                   0.213593000                   2.703402217                  -0.001786444
              21.989                    0.211715846                   0.213837684                   2.978424883                  -0.002121838
              22.989                    0.211613479                   0.214106065                   3.253426253                  -0.002492586
              23.988                    0.211498933                   0.214398085                   3.527163864                  -0.002899152
              24.988                    0.211371733                   0.214713592                   3.798658026                  -0.003341859
              25.987                    0.211231449                   0.215052358                   4.067162430                  -0.003820910
              26.987                    0.211077695                   0.215414102                   4.332133685                  -0.004336407
              27.986                    0.210910124                   0.215798502                   4.593201270                  -0.004888378
              28.986                    0.210728427                   0.216205211                   4.850138914                  -0.005476784
              29.985                    0.210532328                   0.216633868                   5.102838098                  -0.006101540
              30.985                    0.210321581                   0.217084107                   5.351284080                  -0.006762526
              31.984                    0.210095968                   0.217555563                   5.595534649                  -0.007459596
              32.984                    0.209855296                   0.218047880                   5.835701644                  -0.008192584
              33.983                    0.209599394                   0.218560712                   6.071935183                  -0.008961318
              34.983                    0.209328112                   0.219093728                   6.304410441                  -0.009765615
              35.982                    0.209041318                   0.219646611                   6.533316780                  -0.010605294
              36.982                    0.208738893                   0.220219064                   6.758848999                  -0.011480171
              37.981                    0.208420736                   0.220810804                   6.981200461                  -0.012390068
              38.981                    0.208086756                   0.221421564                   7.200557847                  -0.013334808
              39.980                    0.207736875                   0.222051096                   7.417097305                  -0.014314221
              40.980                    0.207371024                   0.222699162                   7.630981771                  -0.015328138
              41.979                    0.206989142                   0.223365541                   7.842359262                  -0.016376399
              42.979                    0.206591179                   0.224050024                   8.051361958                  -0.017458845
              43.978                    0.206177089                   0.224752409                   8.258105909                  -0.018575320
              44.978                    0.205746835                   0.225472508                   8.462691237                  -0.019725674
              45.977                    0.205300383                   0.226210138                   8.665202707                  -0.020909756
              46.977                    0.204837707                   0.226965124                   8.865710569                  -0.022127417
              47.976                    0.204358784                   0.227737295                   9.064271591                  -0.023378511
              48.976                    0.203863597                   0.228526487                   9.260930206                  -0.024662890
              49.975                    0.203352131                   0.229332535                   9.455719731                  -0.025980404
              50.975                    0.202824378                   0.230155282                   9.648663606                  -0.027330904
              51.974                    0.202280330                   0.230994568                   9.839776614                  -0.028714238
              52.974                    0.201719983                   0.231850236                  10.029066070                  -0.030130252
              53.973                    0.201143339                   0.232722129                  10.216532954                  -0.031578789
              54.973                    0.200550400                   0.233610090                  10.402172967                  -0.033059690
              55.972                    0.199941171                   0.234513961                  10.585977519                  -0.034572790
              56.972                    0.199315661                   0.235433584                  10.767934625                  -0.036117923
              57.971                    0.198673880                   0.236368799                  10.948029721                  -0.037694919
              58.971                    0.198015841                   0.237319444                  11.126246399                  -0.039303604
              59.970                    0.197341559                   0.238285359                  11.302567050                  -0.040943799
              60.970                    0.196651054                   0.239266377                  11.476973442                  -0.042615323
              61.969                    0.195944343                   0.240262334                  11.649447210                  -0.044317991
              62.969                    0.195221449                   0.241273062                  11.819970288                  -0.046051613
              63.968                    0.194482395                   0.242298393                  11.988525268                  -0.047815998
              64.968                    0.193727207                   0.243338156                  12.155095707                  -0.049610949
              65.967                    0.192955914                   0.244392180                  12.319666376                  -0.051436266
              66.967                    0.192168543                   0.245460292                  12.482223460                  -0.053291749
              67.966                    0.191365126                   0.246542318                  12.642754722                  -0.055177192
              68.966                    0.190545695                   0.247638082                  12.801249618                  -0.057092387
              69.965                    0.189710286                   0.248747410                  12.957699385                  -0.059037125
              70.965                    0.188858933                   0.249870125                  13.112097099                  -0.061011192
              71.964                    0.187991673                   0.251006049                  13.264437704                  -0.063014376
              72.964                    0.187108546                   0.252155006                  13.414718022                  -0.065046460
              73.963                    0.186209592                   0.253316818                  13.562936739                  -0.067107226
              74.963                    0.185294852                   0.254491307                  13.709094383                  -0.069196456
              75.962                    0.184364368                   0.255678296                  13.853193279                  -0.071313929
              76.962                    0.183418184                   0.256877608                  13.995237502                  -0.073459424
              77.961                    0.182456346                   0.258089066                  14.135232813                  -0.075632720
              78.961                    0.181478899                   0.259312494                  14.273186593                  -0.077833595
              79.960                    0.180485891                   0.260547716                  14.409107771                  -0.080061825
              80.960                    0.179477370                   0.261794558                  14.543006745                  -0.082317188
              81.959                    0.178453384                   0.263052846                  14.674895303                  -0.084599461
              82.959                    0.177413985                   0.264322407                  14.804786541                  -0.086908422
              83.958                    0.176359223                   0.265603071                  14.932694782                  -0.089243848
              84.958                    0.175289149                   0.266894666                  15.058635491                  -0.091605517
              85.957                    0.174203816                   0.268197025                  15.182625195                  -0.093993208
              86.957                    0.173103278                   0.269509979                  15.304681402                  -0.096406701
              87.956                    0.171987588                   0.270833364                  15.424822522                  -0.098845775
              88.956                    0.170856802                   0.272167014                  15.543067790                  -0.101310213
              89.955                    0.169710973                   0.273510769                  15.659437190                  -0.103799796
              90.955                    0.168550158                   0.274864466                  15.773951386                  -0.106314308
              91.954                    0.167374414                   0.276227947                  15.886631650                  -0.108853533
              92.954                    0.166183796                   0.277601055                  15.997499797                  -0.111417259
              93.953                    0.164978363                   0.278983635                  16.106578123                  -0.114005272
              94.953                    0.163758171                   0.280375534                  16.213889340                  -0.116617362
              95.952                    0.162523280                   0.281776600                  16.319456524                  -0.119253320
              96.952                    0.161273747                   0.283186684                  16.423303058                  -0.121912938
              97.951                    0.160009630                   0.284605640                  16.525452579                  -0.124596009
              98.951                    0.158730991                   0.286033321                  16.625928935                  -0.127302331
              99.950                    0.157437886                   0.287469585                  16.724756135                  -0.130031699
             100.950                    0.156130376                   0.288914292                  16.821958308                  -0.132783915
             101.949                    0.154808521                   0.290367301                  16.917559664                  -0.135558779
             102.949                    0.153472381                   0.291828476                  17.011584455                  -0.138356095
             103.948                    0.152122015                   0.293297682                  17.104056941                  -0.141175667
             104.948                    0.150757485                   0.294774788                  17.195001361                  -0.144017303
             105.947                    0.149378849                   0.296259661                  17.284441897                  -0.146880812
             106.947                    0.147986169                   0.297752174                  17.372402653                  -0.149766005
             107.946                    0.146579504                   0.299252200                  17.458907625                  -0.152672696
             108.946                    0.145158917                   0.300759616                  17.543980680                  -0.155600699
             109.945                    0.143724466                   0.302274297                  17.627645534                  -0.158549831
             110.945                    0.142276213                   0.303796125                  17.709925732                  -0.161519913
             111.944                    0.140814217                   0.305324981                  17.790844631                  -0.164510764
             112.944                    0.139338541                   0.306860749                  17.870425382                  -0.167522208
             113.943                    0.137849243                   0.308403314                  17.948690919                  -0.170554072
             114.943                    0.136346384                   0.309952565                  18.025663943                  -0.173606181
             115.942                    0.134830025                   0.311508390                  18.101366908                  -0.176678365
             116.942                    0.133300225                   0.313070682                  18.175822017                  -0.179770457
             117.941                    0.131757046                   0.314639334                  18.249051207                  -0.182882288
             118.941                    0.130200545                   0.316214240                  18.321076142                  -0.186013695
             119.940                    0.128630785                   0.317795300                  18.391918207                  -0.189164515
             120.940                    0.127047823                   0.319382411                  18.461598503                  -0.192334587
             121.939                    0.125451721                   0.320975474                  18.530137836                  -0.195523753
             122.939                    0.123842536                   0.322574392                  18.597556721                  -0.198731856
             123.938                    0.122220328                   0.324179069                  18.663875370                  -0.201958741
             124.938                    0.120585156                   0.325789412                  18.729113696                  -0.205204255
             125.937                    0.118937079                   0.327405328                  18.793291306                  -0.208468248
             126.937                    0.117276156                   0.329026726                  18.856427501                  -0.211750570
             127.936                    0.115602444                   0.330653518                  18.918541276                  -0.215051074
             128.936                    0.113916002                   0.332285617                  18.979651319                  -0.218369615
             129.935                    0.112216888                   0.333922937                  19.039776009                  -0.221706049
             130.935                    0.110505159                   0.335565393                  19.098933419                  -0.225060234
             131.934                    0.108780873                   0.337212904                  19.157141315                  -0.228432031
             132.934                    0.107044087                   0.338865388                  19.214417159                  -0.231821301
             133.933                    0.105294857                   0.340522765                  19.270778110                  -0.235227908
             134.933                    0.103533241                   0.342184959                  19.326241025                  -0.238651717
             135.932                    0.101759295                   0.343851891                  19.380822460                  -0.242092596
             136.932                    0.099973075                   0.345523487                  19.434538677                  -0.245550412
             137.931                    0.098174636                   0.347199672                  19.487405642                  -0.249025036
