# Phonon free energy and specific heat from phonopy-FHI-aims
# Phonon zero point energy =            0.232323970 eV 
#     Temperature (K)          Free energy (eV/cell)     Internal energy (eV/cell)                 c_v (kB/cell)              -TS_vib(eV/cell)
               0.000                    0.232323970                   0.232323970                   0.000000000                  -0.000000000
              20.000                    0.232304092                   0.232393349                   0.186692863                  -0.000089258
              40.000                    0.231905111                   0.233602702                   1.322645891                  -0.001697591
              60.000                    0.230413919                   0.236974664                   2.552385721                  -0.006560745
              80.000                    0.227477147                   0.242265778                   3.556651174                  -0.014788631
             100.000                    0.223013303                   0.249161277                   4.431684403                  -0.026147975
             120.000                    0.217023067                   0.257507255                   5.244996210                  -0.040484188
             140.000                    0.209526805                   0.267210153                   6.005040522                  -0.057683349
             160.000                    0.200552622                   0.278169063                   6.700516880                  -0.077616441
             180.000                    0.190135453                   0.290264020                   7.322482895                  -0.100128567
             200.000                    0.178316449                   0.303365862                   7.869221734                  -0.125049414
             220.000                    0.165141443                   0.317347677                   8.344617090                  -0.152206234
             240.000                    0.150659104                   0.332092163                   8.755544401                  -0.181433059
             260.000                    0.134919256                   0.347494987                   9.109920523                  -0.212575731
             280.000                    0.117971573                   0.363465485                   9.415561159                  -0.245493913
             300.000                    0.099864645                   0.379925947                   9.679620849                  -0.280061302
             320.000                    0.080645376                   0.396810251                   9.908382350                  -0.316164875
             340.000                    0.060358622                   0.414062332                  10.107232753                  -0.353703710
             360.000                    0.039046999                   0.431634677                  10.280728342                  -0.392587678
             380.000                    0.016750823                   0.449486981                  10.432694030                  -0.432736157
             400.000                   -0.006491875                   0.467584977                  10.566329449                  -0.474076852
             420.000                   -0.030645287                   0.485899449                  10.684308627                  -0.516544735
             440.000                   -0.055675726                   0.504405395                  10.788867993                  -0.560081121
             460.000                   -0.081551516                   0.523081351                  10.881881494                  -0.604632868
             480.000                   -0.108242870                   0.541908813                  10.964923451                  -0.650151683
             500.000                   -0.135721765                   0.560871771                  11.039320570                  -0.696593535
             520.000                   -0.163961823                   0.579956318                  11.106194679                  -0.743918141
             540.000                   -0.192938199                   0.599150333                  11.166497761                  -0.792088531
             560.000                   -0.222627465                   0.618443207                  11.221040614                  -0.841070672
             580.000                   -0.253007516                   0.637825625                  11.270516329                  -0.890833141
             600.000                   -0.284057467                   0.657289379                  11.315519546                  -0.941346847
             620.000                   -0.315757571                   0.676827215                  11.356562269                  -0.992584785
             640.000                   -0.348089132                   0.696432695                  11.394086905                  -1.044521827
             660.000                   -0.381034436                   0.716100095                  11.428477039                  -1.097134531
             680.000                   -0.414576677                   0.735824308                  11.460066365                  -1.150400985
             700.000                   -0.448699898                   0.755600761                  11.489146112                  -1.204300659
             720.000                   -0.483388927                   0.775425356                  11.515971246                  -1.258814283
             740.000                   -0.518629330                   0.795294403                  11.540765661                  -1.313923734
             760.000                   -0.554407358                   0.815204576                  11.563726539                  -1.369611934
             780.000                   -0.590709902                   0.835152867                  11.585028023                  -1.425862769
             800.000                   -0.627524452                   0.855136554                  11.604824334                  -1.482661005
             820.000                   -0.664839059                   0.875153160                  11.623252400                  -1.539992219
             840.000                   -0.702642300                   0.895200437                  11.640434106                  -1.597842737
             860.000                   -0.740923244                   0.915276330                  11.656478212                  -1.656199574
             880.000                   -0.779671423                   0.935378966                  11.671481991                  -1.715050389
             900.000                   -0.818876806                   0.955506626                  11.685532638                  -1.774383432
             920.000                   -0.858529767                   0.975657738                  11.698708490                  -1.834187505
             940.000                   -0.898621071                   0.995830856                  11.711080069                  -1.894451927
             960.000                   -0.939141843                   1.016024648                  11.722710992                  -1.955166492
             980.000                   -0.980083553                   1.036237890                  11.733658761                  -2.016321443
            1000.000                   -1.021437995                   1.056469448                  11.743975446                  -2.077907443
            1020.000                   -1.063197267                   1.076718278                  11.753708288                  -2.139915545
            1040.000                   -1.105353761                   1.096983410                  11.762900220                  -2.202337171
            1060.000                   -1.147900142                   1.117263946                  11.771590329                  -2.265164088
            1080.000                   -1.190829336                   1.137559052                  11.779814255                  -2.328388388
            1100.000                   -1.234134514                   1.157867954                  11.787604550                  -2.392002468
            1120.000                   -1.277809084                   1.178189930                  11.794990994                  -2.455999014
            1140.000                   -1.321846677                   1.198524309                  11.802000865                  -2.520370986
            1160.000                   -1.366241135                   1.218870462                  11.808659192                  -2.585111597
            1180.000                   -1.410986504                   1.239227804                  11.814988969                  -2.650214308
            1200.000                   -1.456077019                   1.259595788                  11.821011350                  -2.715672807
            1220.000                   -1.501507100                   1.279973900                  11.826745824                  -2.781481000
            1240.000                   -1.547271344                   1.300361661                  11.832210364                  -2.847633004
            1260.000                   -1.593364510                   1.320758618                  11.837421572                  -2.914123129
            1280.000                   -1.639781522                   1.341164350                  11.842394798                  -2.980945872
            1300.000                   -1.686517451                   1.361578459                  11.847144251                  -3.048095910
            1320.000                   -1.733567518                   1.382000569                  11.851683100                  -3.115568087
            1340.000                   -1.780927081                   1.402430329                  11.856023565                  -3.183357411
            1360.000                   -1.828591632                   1.422867408                  11.860176995                  -3.251459039
            1380.000                   -1.876556790                   1.443311491                  11.864153941                  -3.319868281
            1400.000                   -1.924818299                   1.463762283                  11.867964224                  -3.388580582
            1420.000                   -1.973372017                   1.484219505                  11.871616995                  -3.457591522
            1440.000                   -2.022213919                   1.504682893                  11.875120787                  -3.526896812
            1460.000                   -2.071340084                   1.525152197                  11.878483564                  -3.596492282
            1480.000                   -2.120746699                   1.545627181                  11.881712767                  -3.666373880
            1500.000                   -2.170430048                   1.566107620                  11.884815356                  -3.736537668
            1520.000                   -2.220386513                   1.586593301                  11.887797842                  -3.806979815
            1540.000                   -2.270612567                   1.607084024                  11.890666326                  -3.877696592
            1560.000                   -2.321104774                   1.627579597                  11.893426529                  -3.948684371
            1580.000                   -2.371859781                   1.648079837                  11.896083815                  -4.019939618
            1600.000                   -2.422874321                   1.668584572                  11.898643224                  -4.091458893
            1620.000                   -2.474145204                   1.689093637                  11.901109491                  -4.163238840
            1640.000                   -2.525669317                   1.709606875                  11.903487068                  -4.235276192
            1660.000                   -2.577443622                   1.730124138                  11.905780147                  -4.307567760
            1680.000                   -2.629465153                   1.750645283                  11.907992674                  -4.380110436
            1700.000                   -2.681731011                   1.771170174                  11.910128369                  -4.452901186
            1720.000                   -2.734238366                   1.791698683                  11.912190739                  -4.525937048
            1740.000                   -2.786984449                   1.812230685                  11.914183095                  -4.599215134
            1760.000                   -2.839966558                   1.832766063                  11.916108563                  -4.672732620
            1780.000                   -2.893182046                   1.853304703                  11.917970097                  -4.746486750
            1800.000                   -2.946628329                   1.873846499                  11.919770491                  -4.820474828
            1820.000                   -3.000302875                   1.894391348                  11.921512386                  -4.894694223
            1840.000                   -3.054203210                   1.914939149                  11.923198284                  -4.969142359
            1860.000                   -3.108326910                   1.935489810                  11.924830555                  -5.043816720
            1880.000                   -3.162671604                   1.956043239                  11.926411445                  -5.118714843
            1900.000                   -3.217234971                   1.976599350                  11.927943084                  -5.193834321
            1920.000                   -3.272014735                   1.997158060                  11.929427492                  -5.269172795
            1940.000                   -3.327008669                   2.017719289                  11.930866587                  -5.344727958
            1960.000                   -3.382214591                   2.038282960                  11.932262192                  -5.420497551
            1980.000                   -3.437630362                   2.058849001                  11.933616038                  -5.496479363
            2000.000                   -3.493253886                   2.079417340                  11.934929772                  -5.572671226
