# Phonon free energy and specific heat from phonopy-FHI-aims
# Phonon zero point energy =            0.158913125 eV 
#     Temperature (K)          Free energy (eV/cell)     Internal energy (eV/cell)                 c_v (kB/cell)              -TS_vib(eV/cell)
               0.000                    0.158913125                   0.158913125                   0.000000000                  -0.000000000
               1.000                    0.158913125                   0.158913125                   0.000004152                  -0.000000000
               1.999                    0.158913123                   0.158913132                   0.000235380                  -0.000000008
               2.999                    0.158913111                   0.158913179                   0.000961966                  -0.000000068
               3.998                    0.158913071                   0.158913314                   0.002261947                  -0.000000242
               4.998                    0.158912982                   0.158913590                   0.004293279                  -0.000000608
               5.997                    0.158912819                   0.158914080                   0.007260493                  -0.000001261
               6.997                    0.158912551                   0.158914875                   0.011431297                  -0.000002324
               7.996                    0.158912142                   0.158916095                   0.017184096                  -0.000003953
               8.996                    0.158911546                   0.158917896                   0.025055226                  -0.000006350
               9.995                    0.158910710                   0.158920491                   0.035748581                  -0.000009781
              10.995                    0.158909565                   0.158924159                   0.050088286                  -0.000014594
              11.994                    0.158908026                   0.158929249                   0.068927608                  -0.000021223
              12.994                    0.158905990                   0.158936184                   0.093045495                  -0.000030194
              13.993                    0.158903337                   0.158945447                   0.123059651                  -0.000042110
              14.993                    0.158899925                   0.158957563                   0.159372149                  -0.000057639
              15.992                    0.158895596                   0.158973086                   0.202150329                  -0.000077490
              16.992                    0.158890179                   0.158992570                   0.251337126                  -0.000102392
              17.991                    0.158883487                   0.159016558                   0.306681384                  -0.000133072
              18.991                    0.158875327                   0.159045565                   0.367778716                  -0.000170237
              19.990                    0.158865500                   0.159080063                   0.434115226                  -0.000214563
              20.990                    0.158853803                   0.159120479                   0.505108848                  -0.000266676
              21.989                    0.158840035                   0.159167189                   0.580145206                  -0.000327154
              22.989                    0.158823996                   0.159220514                   0.658606673                  -0.000396517
              23.988                    0.158805491                   0.159280722                   0.739894449                  -0.000475231
              24.988                    0.158784332                   0.159348033                   0.823444259                  -0.000563701
              25.987                    0.158760336                   0.159422619                   0.908736567                  -0.000662283
              26.987                    0.158733331                   0.159504609                   0.995302386                  -0.000771279
              27.986                    0.158703151                   0.159594095                   1.082725664                  -0.000890944
              28.986                    0.158669641                   0.159691134                   1.170643187                  -0.001021493
              29.985                    0.158632656                   0.159795756                   1.258742707                  -0.001163100
              30.985                    0.158592057                   0.159907964                   1.346759936                  -0.001315907
              31.984                    0.158547718                   0.160027741                   1.434474836                  -0.001480024
              32.984                    0.158499518                   0.160155054                   1.521707565                  -0.001655536
              33.983                    0.158447347                   0.160289853                   1.608314312                  -0.001842507
              34.983                    0.158391102                   0.160432082                   1.694183194                  -0.002040980
              35.982                    0.158330689                   0.160581671                   1.779230325                  -0.002250982
              36.982                    0.158266019                   0.160738548                   1.863396127                  -0.002472528
              37.981                    0.158197013                   0.160902634                   1.946641903                  -0.002705622
              38.981                    0.158123594                   0.161073850                   2.028946723                  -0.002950256
              39.980                    0.158045695                   0.161252115                   2.110304580                  -0.003206419
              40.980                    0.157963253                   0.161437346                   2.190721852                  -0.003474093
              41.979                    0.157876209                   0.161629463                   2.270215024                  -0.003753254
              42.979                    0.157784510                   0.161828389                   2.348808669                  -0.004043879
              43.978                    0.157688106                   0.162034046                   2.426533676                  -0.004345940
              44.978                    0.157586952                   0.162246361                   2.503425684                  -0.004659408
              45.977                    0.157481008                   0.162465264                   2.579523728                  -0.004984257
              46.977                    0.157370233                   0.162690690                   2.654869068                  -0.005320456
              47.976                    0.157254594                   0.162922574                   2.729504181                  -0.005667980
              48.976                    0.157134057                   0.163160857                   2.803471909                  -0.006026800
              49.975                    0.157008593                   0.163405483                   2.876814738                  -0.006396891
              50.975                    0.156878173                   0.163656402                   2.949574207                  -0.006778229
              51.974                    0.156742771                   0.163913563                   3.021790415                  -0.007170792
              52.974                    0.156602365                   0.164176923                   3.093501637                  -0.007574558
              53.973                    0.156456932                   0.164446438                   3.164744017                  -0.007989507
              54.973                    0.156306451                   0.164722071                   3.235551342                  -0.008415620
              55.972                    0.156150903                   0.165003785                   3.305954879                  -0.008852882
              56.972                    0.155990271                   0.165291546                   3.375983266                  -0.009301275
              57.971                    0.155824537                   0.165585324                   3.445662465                  -0.009760787
              58.971                    0.155653687                   0.165885089                   3.515015740                  -0.010231402
              59.970                    0.155477705                   0.166190814                   3.584063685                  -0.010713109
              60.970                    0.155296579                   0.166502474                   3.652824270                  -0.011205895
              61.969                    0.155110295                   0.166820044                   3.721312925                  -0.011709749
              62.969                    0.154918841                   0.167143502                   3.789542630                  -0.012224661
              63.968                    0.154722207                   0.167472826                   3.857524029                  -0.012750619
              64.968                    0.154520381                   0.167807995                   3.925265551                  -0.013287614
              65.967                    0.154313354                   0.168148988                   3.992773547                  -0.013835634
              66.967                    0.154101116                   0.168495786                   4.060052423                  -0.014394669
              67.966                    0.153883660                   0.168848369                   4.127104784                  -0.014964709
              68.966                    0.153660975                   0.169206717                   4.193931575                  -0.015545742
              69.965                    0.153433056                   0.169570812                   4.260532226                  -0.016137756
              70.965                    0.153199894                   0.169940633                   4.326904788                  -0.016740738
              71.964                    0.152961484                   0.170316160                   4.393046073                  -0.017354677
              72.964                    0.152717818                   0.170697375                   4.458951788                  -0.017979557
              73.963                    0.152468891                   0.171084255                   4.524616660                  -0.018615364
              74.963                    0.152214698                   0.171476781                   4.590034559                  -0.019262083
              75.962                    0.151955234                   0.171874930                   4.655198618                  -0.019919696
              76.962                    0.151690494                   0.172278681                   4.720101337                  -0.020588187
              77.961                    0.151420475                   0.172688010                   4.784734695                  -0.021267535
              78.961                    0.151145172                   0.173102894                   4.849090237                  -0.021957723
              79.960                    0.150864582                   0.173523309                   4.913159172                  -0.022658727
              80.960                    0.150578703                   0.173949230                   4.976932454                  -0.023370527
              81.959                    0.150287531                   0.174380630                   5.040400860                  -0.024093099
              82.959                    0.149991065                   0.174817483                   5.103555058                  -0.024826418
              83.958                    0.149689304                   0.175259762                   5.166385675                  -0.025570459
              84.958                    0.149382245                   0.175707439                   5.228883355                  -0.026325194
              85.957                    0.149069887                   0.176160483                   5.291038811                  -0.027090596
              86.957                    0.148752231                   0.176618866                   5.352842873                  -0.027866636
              87.956                    0.148429275                   0.177082557                   5.414286532                  -0.028653282
              88.956                    0.148101020                   0.177551524                   5.475360976                  -0.029450504
              89.955                    0.147767466                   0.178025735                   5.536057623                  -0.030258270
              90.955                    0.147428614                   0.178505158                   5.596368153                  -0.031076544
              91.954                    0.147084465                   0.178989758                   5.656284528                  -0.031905293
              92.954                    0.146735021                   0.179479502                   5.715799017                  -0.032744480
              93.953                    0.146380284                   0.179974353                   5.774904213                  -0.033594070
              94.953                    0.146020255                   0.180474278                   5.833593046                  -0.034454024
              95.952                    0.145654937                   0.180979240                   5.891858798                  -0.035324303
              96.952                    0.145284333                   0.181489201                   5.949695109                  -0.036204869
              97.951                    0.144908446                   0.182004126                   6.007095985                  -0.037095680
              98.951                    0.144527279                   0.182523975                   6.064055802                  -0.037996696
              99.950                    0.144140837                   0.183048711                   6.120569309                  -0.038907874
             100.950                    0.143749123                   0.183578295                   6.176631629                  -0.039829172
             101.949                    0.143352142                   0.184112688                   6.232238256                  -0.040760546
             102.949                    0.142949898                   0.184651851                   6.287385054                  -0.041701953
             103.948                    0.142542397                   0.185195744                   6.342068255                  -0.042653347
             104.948                    0.142129643                   0.185744326                   6.396284450                  -0.043614683
             105.947                    0.141711643                   0.186297558                   6.450030587                  -0.044585915
             106.947                    0.141288402                   0.186855399                   6.503303964                  -0.045566997
             107.946                    0.140859926                   0.187417808                   6.556102216                  -0.046557882
             108.946                    0.140426221                   0.187984744                   6.608423315                  -0.047558523
             109.945                    0.139987294                   0.188556165                   6.660265557                  -0.048568871
             110.945                    0.139543153                   0.189132032                   6.711627551                  -0.049588879
             111.944                    0.139093803                   0.189712301                   6.762508215                  -0.050618497
             112.944                    0.138639254                   0.190296932                   6.812906760                  -0.051657678
             113.943                    0.138179511                   0.190885883                   6.862822686                  -0.052706372
             114.943                    0.137714583                   0.191479112                   6.912255766                  -0.053764529
             115.942                    0.137244478                   0.192076578                   6.961206042                  -0.054832100
             116.942                    0.136769205                   0.192678240                   7.009673807                  -0.055909035
             117.941                    0.136288771                   0.193284055                   7.057659604                  -0.056995284
             118.941                    0.135803186                   0.193893983                   7.105164206                  -0.058090797
             119.940                    0.135312458                   0.194507982                   7.152188614                  -0.059195523
             120.940                    0.134816597                   0.195126010                   7.198734041                  -0.060309413
             121.939                    0.134315612                   0.195748026                   7.244801907                  -0.061432415
             122.939                    0.133809511                   0.196373990                   7.290393822                  -0.062564479
             123.938                    0.133298306                   0.197003861                   7.335511586                  -0.063705555
             124.938                    0.132782006                   0.197637597                   7.380157172                  -0.064855591
             125.937                    0.132260620                   0.198275158                   7.424332717                  -0.066014538
             126.937                    0.131734159                   0.198916504                   7.468040519                  -0.067182344
             127.936                    0.131202634                   0.199561594                   7.511283022                  -0.068358960
             128.936                    0.130666054                   0.200210389                   7.554062809                  -0.069544334
             129.935                    0.130124431                   0.200862848                   7.596382597                  -0.070738418
             130.935                    0.129577774                   0.201518933                   7.638245223                  -0.071941159
             131.934                    0.129026096                   0.202178604                   7.679653641                  -0.073152508
             132.934                    0.128469407                   0.202841822                   7.720610913                  -0.074372415
             133.933                    0.127907718                   0.203508549                   7.761120200                  -0.075600831
             134.933                    0.127341040                   0.204178745                   7.801184759                  -0.076837705
             135.932                    0.126769385                   0.204852373                   7.840807931                  -0.078082988
             136.932                    0.126192765                   0.205529395                   7.879993137                  -0.079336630
             137.931                    0.125611190                   0.206209773                   7.918743874                  -0.080598583
