# temperature   10.000000000000000
#    0.000010955622391   -0.002689384498671    0.247008361247493  -10.055369169359746  153.076321815489564
  49.256081908399999    0.153681900000000
  50.063542717600001    0.129742000000000
  50.879780188700003    0.104344000000000
  51.704841763300003    0.064805800000000
  52.538774882600002    0.049491600000000
  53.381626988199997    0.044905700000000
  54.233445521500002    0.043711000000000
  55.094277923800000    0.043553100000000
  55.964171636499998    0.044355900000000
  56.843174101199999    0.045540100000000
  57.731332759200001    0.047351700000000
  58.628695051900003    0.049472700000000
  59.535308420699998    0.051799300000000
  60.451220307100002    0.054878400000000
  61.376478152499999    0.058342100000000
  62.311129398299997    0.062711500000000
  63.255221485900002    0.067567100000000
  64.208801856700006    0.073304500000000
  65.171917952100003    0.080281800000000
  66.144617213600000    0.088199600000000
  67.126947082599997    0.098568900000000
  68.118955000400007    0.110649700000000
  69.120688408600003    0.126727300000000
  70.132194748499998    0.146673900000000
  71.153521461500006    0.169403100000000
  72.184715989099999    0.201160600000000
  73.225825772600004    0.247857200000000
  74.276898253499994    0.318597300000000
  75.337980873199996    0.418511500000000
  76.409121073199998    0.548973000000000
  77.490366294699996    0.772428400000000


# temperature   20.000000000000000
#    0.000029816399425   -0.007269997225138    0.666825909307358  -27.219065253310831  417.242735629446486
  49.256081908399999    1.048122800000000
  50.063542717600001    0.955634100000000
  50.879780188700003    0.870401600000000
  51.704841763300003    0.764597600000000
  52.538774882600002    0.696500800000000
  53.381626988199997    0.663122900000000
  54.233445521500002    0.650481400000000
  55.094277923800000    0.644427300000000
  55.964171636499998    0.650823900000000
  56.843174101199999    0.661868500000000
  57.731332759200001    0.683783100000000
  58.628695051900003    0.707964400000000
  59.535308420699998    0.736317200000000
  60.451220307100002    0.774180400000000
  61.376478152499999    0.817734000000000
  62.311129398299997    0.874528700000000
  63.255221485900002    0.932821700000000
  64.208801856700006    1.000193000000000
  65.171917952100003    1.080559000000000
  66.144617213600000    1.165110400000000
  67.126947082599997    1.269765100000000
  68.118955000400007    1.386156600000000
  69.120688408600003    1.530228200000000
  70.132194748499998    1.694469000000000
  71.153521461500006    1.865623400000000
  72.184715989099999    2.084992100000000
  73.225825772600004    2.381875900000000
  74.276898253499994    2.766521100000000
  75.337980873199996    3.239195600000000
  76.409121073199998    3.752666000000000
  77.490366294699996    4.487750400000000


# temperature   30.000000000000000
#    0.000039984567912   -0.009752882652135    0.898960646448083  -36.966647904489271  572.945261693896214
  49.256081908399999    2.949805300000000
  50.063542717600001    2.806533600000000
  50.879780188700003    2.677189000000000
  51.704841763300003    2.531154500000000
  52.538774882600002    2.433437900000000
  53.381626988199997    2.390852800000000
  54.233445521500002    2.386444900000000
  55.094277923800000    2.390829700000000
  55.964171636499998    2.425406400000000
  56.843174101199999    2.469985000000000
  57.731332759200001    2.543283600000000
  58.628695051900003    2.619217300000000
  59.535308420699998    2.705567400000000
  60.451220307100002    2.815966000000000
  61.376478152499999    2.939748400000000
  62.311129398299997    3.096661500000000
  63.255221485900002    3.252833500000000
  64.208801856700006    3.429180000000000
  65.171917952100003    3.634591500000000
  66.144617213600000    3.845063400000000
  67.126947082599997    4.098409100000000
  68.118955000400007    4.374474600000000
  69.120688408600003    4.703160100000000
  70.132194748499998    5.067345500000000
  71.153521461500006    5.438558300000000
  72.184715989099999    5.894000200000000
  73.225825772600004    6.482569200000000
  74.276898253499994    7.199997000000000
  75.337980873199996    8.039208500000001
  76.409121073199998    8.907023700000000
  77.490366294699996   10.065730000000000


# temperature   40.000000000000000
#    0.000042981153131   -0.010497887610015    0.973077450939824  -40.307375769970129  631.615834854384389
  49.256081908399999    5.489623700000000
  50.063542717600001    5.340266000000000
  50.879780188700003    5.203704100000000
  51.704841763300003    5.052675800000000
  52.538774882600002    4.957451700000000
  53.381626988199997    4.932913400000000
  54.233445521500002    4.959539100000000
  55.094277923800000    4.994834800000000
  55.964171636499998    5.076424900000000
  56.843174101199999    5.172967200000000
  57.731332759200001    5.315038200000000
  58.628695051900003    5.459838100000000
  59.535308420699998    5.621506000000000
  60.451220307100002    5.821397400000000
  61.376478152499999    6.042414000000000
  62.311129398299997    6.314008000000000
  63.255221485900002    6.583150600000000
  64.208801856700006    6.882203500000000
  65.171917952100003    7.224432400000000
  66.144617213600000    7.573027600000000
  67.126947082599997    7.983574200000000
  68.118955000400007    8.427255100000000
  69.120688408600003    8.940057700000001
  70.132194748499998    9.499027999999999
  71.153521461500006   10.064510000000000
  72.184715989099999   10.735541300000000
  73.225825772600004   11.576435699999999
  74.276898253499994   12.564834800000000
  75.337980873199996   13.690384900000000
  76.409121073199998   14.829438200000000
  77.490366294699996   16.291449400000001


# temperature   50.000000000000000
#    0.000043285161661   -0.010609258921549    0.990223422259380  -41.321208238251380  654.339241537590624
  49.256081908399999    8.345386500000000
  50.063542717600001    8.221399600000000
  50.879780188700003    8.106150700000001
  51.704841763300003    7.976423700000000
  52.538774882600002    7.907687900000000
  53.381626988199997    7.921557500000000
  54.233445521500002    7.996034600000000
  55.094277923800000    8.078861699999999
  55.964171636499998    8.220702599999999
  56.843174101199999    8.382255300000001
  57.731332759200001    8.602955100000001
  58.628695051900003    8.826847400000000
  59.535308420699998    9.073479000000001
  60.451220307100002    9.369937400000000
  61.376478152499999    9.694351899999999
  62.311129398299997   10.081553899999999
  63.255221485900002   10.465228500000000
  64.208801856700006   10.885430299999999
  65.171917952100003   11.358920500000000
  66.144617213600000   11.839764499999999
  67.126947082599997   12.395614800000001
  68.118955000400007   12.992417200000000
  69.120688408600003   13.666611400000001
  70.132194748499998   14.392510600000000
  71.153521461500006   15.123073300000000
  72.184715989099999   15.969326900000000
  73.225825772600004   17.007717299999999
  74.276898253499994   18.199968599999998
  75.337980873199996   19.535182500000001
  76.409121073199998   20.870431199999999
  77.490366294699996   22.543205499999999


# temperature   60.000000000000000
#    0.000043216549242   -0.010640192135534    0.999611198421492  -41.953850726021670  669.848681106626373
  49.256081908399999   11.358761500000000
  50.063542717600001   11.278902199999999
  50.879780188700003   11.203080900000000
  51.704841763300003   11.111322100000001
  52.538774882600002   11.084147300000000
  53.381626988199997   11.148775600000000
  54.233445521500002   11.280746900000000
  55.094277923800000   11.420733300000000
  55.964171636499998   11.629050299999999
  56.843174101199999   11.861164900000000
  57.731332759200001   12.162617700000000
  58.628695051900003   12.467470700000000
  59.535308420699998   12.799588099999999
  60.451220307100002   13.189986599999999
  61.376478152499999   13.613465100000001
  62.311129398299997   14.107127699999999
  63.255221485900002   14.595991600000000
  64.208801856700006   15.124972500000000
  65.171917952100003   15.713606900000000
  66.144617213600000   16.309679100000000
  67.126947082599997   16.988804999999999
  68.118955000400007   17.713917599999998
  69.120688408600003   18.519516800000002
  70.132194748499998   19.378935400000000
  71.153521461500006   20.240335999999999
  72.184715989099999   21.221485500000000
  73.225825772600004   22.408187699999999
  74.276898253499994   23.749712200000001
  75.337980873199996   25.235784500000001
  76.409121073199998   26.711066200000001
  77.490366294699996   28.530640300000002


# temperature   70.000000000000000
#    0.000043261219051   -0.010694716897393    1.009724272124596  -42.526580868364981  682.876885053156684
  49.256081908399999   14.449645600000000
  50.063542717600001   14.423183099999999
  50.879780188700003   14.395982300000000
  51.704841763300003   14.350334200000001
  52.538774882600002   14.371528899999999
  53.381626988199997   14.491490799999999
  54.233445521500002   14.683387700000001
  55.094277923800000   14.882738399999999
  55.964171636499998   15.156885000000001
  56.843174101199999   15.457945199999999
  57.731332759200001   15.835593899999999
  58.628695051900003   16.216324400000001
  59.535308420699998   16.627405400000001
  60.451220307100002   17.102519000000001
  61.376478152499999   17.614159000000001
  62.311129398299997   18.199997100000001
  63.255221485900002   18.779442100000001
  64.208801856700006   19.400508299999998
  65.171917952100003   20.084951799999999
  66.144617213600000   20.776219099999999
  67.126947082599997   21.555288500000000
  68.118955000400007   22.383366599999999
  69.120688408600003   23.292370900000002
  70.132194748499998   24.255510099999999
  71.153521461500006   25.217784200000001
  72.184715989099999   26.300967100000001
  73.225825772600004   27.598009099999999
  74.276898253499994   29.048779400000001
  75.337980873199996   30.643982600000001
  76.409121073199998   32.220012300000000
  77.490366294699996   34.143571500000000


# temperature   80.000000000000000
#    0.000043372873584   -0.010755470509228    1.018795550833062  -42.977481984913460  692.805621691211741
  49.256081908399999   17.565185199999998
  50.063542717600001   17.594784700000002
  50.879780188700003   17.618904199999999
  51.704841763300003   17.621281100000001
  52.538774882600002   17.691637600000000
  53.381626988199997   17.865926500000000
  54.233445521500002   18.115132299999999
  55.094277923800000   18.370962700000000
  55.964171636499998   18.705922000000001
  56.843174101199999   19.069990099999998
  57.731332759200001   19.515672700000000
  58.628695051900003   19.963682400000000
  59.535308420699998   20.443981200000000
  60.451220307100002   20.992093900000000
  61.376478152499999   21.578903799999999
  62.311129398299997   22.241839299999999
  63.255221485900002   22.896633099999999
  64.208801856700006   23.593341599999999
  65.171917952100003   24.355506399999999
  66.144617213600000   25.123525500000000
  67.126947082599997   25.982107400000000
  68.118955000400007   26.891458000000000
  69.120688408600003   27.880981200000001
  70.132194748499998   28.924136699999998
  71.153521461500006   29.963781200000000
  72.184715989099999   31.124214200000001
  73.225825772600004   32.503852000000002
  74.276898253499994   34.035494999999997
  75.337980873199996   35.710846099999998
  76.409121073199998   37.360586300000001
  77.490366294699996   39.359437100000001


# temperature   90.000000000000000
#    0.000043462846846   -0.010800462508374    1.025069409327332  -43.256618003249528  699.288357950390605
  49.256081908399999   20.665067199999999
  50.063542717600001   20.749353299999999
  50.879780188700003   20.823500500000002
  51.704841763300003   20.872065299999999
  52.538774882600002   20.988866300000002
  53.381626988199997   21.213385400000000
  54.233445521500002   21.514667299999999
  55.094277923800000   21.821556300000001
  55.964171636499998   22.210418000000001
  56.843174101199999   22.629858800000001
  57.731332759200001   23.134368299999998
  58.628695051900003   23.640197199999999
  59.535308420699998   24.179455000000001
  60.451220307100002   24.788978300000000
  61.376478152499999   25.438505700000000
  62.311129398299997   26.164887300000000
  63.255221485900002   26.881394100000001
  64.208801856700006   27.639481000000000
  65.171917952100003   28.464133000000000
  66.144617213600000   29.293556800000001
  67.126947082599997   30.215141700000000
  68.118955000400007   31.188504099999999
  69.120688408600003   32.240834700000001
  70.132194748499998   33.345982100000001
  71.153521461500006   34.445305800000000
  72.184715989099999   35.664783300000003
  73.225825772600004   37.107044500000001
  74.276898253499994   38.699528000000001
  75.337980873199996   40.434835900000003
  76.409121073199998   42.139566799999997
  77.490366294699996   44.194182099999999


# temperature  100.000000000000000
#    0.000043488045075   -0.010821006614050    1.028104705473492  -43.366248569078692  702.691902798094588
  49.256081908399999   23.718735500000001
  50.063542717600001   23.854213000000001
  50.879780188700003   23.975022299999999
  51.704841763300003   24.066075000000001
  52.538774882600002   24.224973899999998
  53.381626988199997   24.494357000000001
  54.233445521500002   24.841584500000000
  55.094277923800000   25.193314399999998
  55.964171636499998   25.628858800000000
  56.843174101199999   26.095933100000000
  57.731332759200001   26.650454199999999
  58.628695051900003   27.205187899999999
  59.535308420699998   27.793971899999999
  60.451220307100002   28.454604300000000
  61.376478152499999   29.155994499999998
  62.311129398299997   29.934312500000001
  63.255221485900002   30.701139000000001
  64.208801856700006   31.508922999999999
  65.171917952100003   32.383822199999997
  66.144617213600000   33.262430400000000
  67.126947082599997   34.234121700000003
  68.118955000400007   35.258159100000000
  69.120688408600003   36.359859200000002
  70.132194748499998   37.513488799999998
  71.153521461500006   38.659329399999997
  72.184715989099999   39.924524499999997
  73.225825772600004   41.414989700000000
  74.276898253499994   43.054040299999997
  75.337980873199996   44.835050600000002
  76.409121073199998   46.581614299999998
  77.490366294699996   48.678429399999999


# temperature  110.000000000000000
#    0.000043440378561   -0.010817310903272    1.028230682289311  -43.334926374751063  703.674700741050628
  49.256081908399999   26.704398999999999
  50.063542717600001   26.886693999999999
  50.879780188700003   27.049960899999999
  51.704841763300003   27.179127000000001
  52.538774882600002   27.375298099999998
  53.381626988199997   27.683981100000000
  54.233445521500002   28.071092300000000
  55.094277923800000   28.461594000000002
  55.964171636499998   28.937090399999999
  56.843174101199999   29.444712200000001
  57.731332759200001   30.041430399999999
  58.628695051900003   30.637255700000001
  59.535308420699998   31.267429100000001
  60.451220307100002   31.970473100000000
  61.376478152499999   32.714683999999998
  62.311129398299997   33.535556900000003
  63.255221485900002   34.343482100000003
  64.208801856700006   35.191638800000000
  65.171917952100003   36.107143299999997
  66.144617213600000   37.025375599999997
  67.126947082599997   38.037216200000003
  68.118955000400007   39.101714100000002
  69.120688408600003   40.242622500000003
  70.132194748499998   41.434607300000003
  71.153521461500006   42.617153100000003
  72.184715989099999   43.918243699999998
  73.225825772600004   45.446390100000002
  74.276898253499994   47.121688599999999
  75.337980873199996   48.938164100000002
  76.409121073199998   50.717140700000002
  77.490366294699996   52.846526099999998


# temperature  120.000000000000000
#    0.000043328133714   -0.010793270154191    1.026037460402339  -43.196914220486967  702.895104539367708
  49.256081908399999   29.607706000000000
  50.063542717600001   29.832281500000001
  50.879780188700003   30.033664800000000
  51.704841763300003   30.196552300000000
  52.538774882600002   30.425301200000000
  53.381626988199997   30.768059699999998
  54.233445521500002   31.189513600000002
  55.094277923800000   31.613290200000002
  55.964171636499998   32.122807899999998
  56.843174101199999   32.664809900000002
  57.731332759200001   33.297065099999998
  58.628695051900003   33.927378599999997
  59.535308420699998   34.592141400000003
  60.451220307100002   35.330435199999997
  61.376478152499999   36.110093999999997
  62.311129398299997   36.965987499999997
  63.255221485900002   37.807647500000002
  64.208801856700006   38.688804500000003
  65.171917952100003   39.637363800000003
  66.144617213600000   40.587772800000003
  67.126947082599997   41.632080899999998
  68.118955000400007   42.729206499999997
  69.120688408600003   43.901603000000001
  70.132194748499998   45.124299000000001
  71.153521461500006   46.336174600000000
  72.184715989099999   47.665839599999998
  73.225825772600004   49.223880000000001
  74.276898253499994   50.927842699999999
  75.337980873199996   52.772297199999997
  76.409121073199998   54.576814800000001
  77.490366294699996   56.731788899999998


# temperature  130.000000000000000
#    0.000043164632615   -0.010753562062866    1.022117341871349  -42.982852125373199  700.897478111112832
  49.256081908399999   32.420165699999998
  50.063542717600001   32.682693600000000
  50.879780188700003   32.918073399999997
  51.704841763300003   33.110592099999998
  52.538774882600002   33.367634899999999
  53.381626988199997   33.739804599999999
  54.233445521500002   34.190739499999999
  55.094277923800000   34.643001499999997
  55.964171636499998   35.181467400000002
  56.843174101199999   35.752621300000001
  57.731332759200001   36.414849300000000
  58.628695051900003   37.074169699999999
  59.535308420699998   37.767924600000001
  60.451220307100002   38.535636300000000
  61.376478152499999   39.344783300000003
  62.311129398299997   40.229675000000000
  63.255221485900002   41.099209399999999
  64.208801856700006   42.007543400000003
  65.171917952100003   42.983236599999998
  66.144617213600000   43.960006399999997
  67.126947082599997   45.030826500000003
  68.118955000400007   46.154535400000000
  69.120688408600003   47.352504199999998
  70.132194748499998   48.600082499999999
  71.153521461500006   49.835683000000003
  72.184715989099999   51.188393099999999
  73.225825772600004   52.770479000000002
  74.276898253499994   54.497439700000001
  75.337980873199996   56.364300999999998
  76.409121073199998   58.189253899999997
  77.490366294699996   60.364654199999997


# temperature  140.000000000000000
#    0.000042963061392   -0.010702433370584    1.016970313906819  -42.717086445336591  698.093784097308458
  49.256081908399999   35.137641000000002
  50.063542717600001   35.434168800000002
  50.879780188700003   35.699803000000003
  51.704841763300003   35.918292000000001
  52.538774882600002   36.199850900000001
  53.381626988199997   36.597379300000000
  54.233445521500002   37.073622999999998
  55.094277923800000   37.550282400000000
  55.964171636499998   38.113422999999997
  56.843174101199999   38.709354400000002
  57.731332759200001   39.396949499999998
  58.628695051900003   40.080763200000000
  59.535308420699998   40.798930400000003
  60.451220307100002   41.591326899999999
  61.376478152499999   42.425153199999997
  62.311129398299997   43.334224300000002
  63.255221485900002   44.226960499999997
  64.208801856700006   45.157855800000000
  65.171917952100003   46.156016000000001
  66.144617213600000   47.154577300000000
  67.126947082599997   48.247256299999997
  68.118955000400007   49.392843499999998
  69.120688408600003   50.611804599999999
  70.132194748499998   51.879770200000003
  71.153521461500006   53.134784000000003
